1
2
4
6
9
10
10
10
10
10
11
12
13
13
14
15
17
18
19
20
20
21
21
21
21
21
21
22
23
23
24
25
25
25
25
25
25
26
27
29
33
37
44
53
62
69
74
76
76
77
92
143
247
425
677
984
1298
1567
1749
1831
1842
1845
1902
2049
2277
2546
2803
3016
3169
3264
3313
3332
3334
3326
3317
3309
3306
3308
3316
3324
3316
3273
3173
2999
2749
2443
2130
1860
1678
1595
1581
1577
1518
1368
1139
869
611
398
245
148
95
71
61
59
59
58
55
49
41
31
23
16
11
8
6
5
5
5
4
4
4
4
4
4
4
4
4
4
3
3
3
2
2
2
2
2
2
3
3
2
2
2
2
1
1
1
1
1
1
1
1
1
1
2
1
1
1
1
1
2
2
2
2
2
2
2
2
2
2
2
2
2
2
3
3
3
3
3
3
3
3
3
4
5
6
6
7
7
8
9
11
15
20
29
38
50
62
73
81
86
87
87
98
139
232
400
646
941
1235
1476
1625
1684
1689
1697
1761
1906
2113
2342
2549
2712
2822
2888
2921
2932
2930
2919
2907
2898
2894
2898
2906
2915
2913
2879
2792
2629
2386
2094
1801
1561
1412
1353
1347
1338
1273
1128
920
691
483
320
208
137
99
80
72
71
71
70
65
56
47
37
29
21
15
10
7
4
2
2
1
1
1
1
1
1
1
1
1
1
1
1
1
1
1
2
3
4
5
7
8
11
14
19
25
35
47
60
75
88
100
108
110
110
117
151
238
392
616
891
1179
1431
1609
1696
1715
1715
1750
1861
2048
2276
2504
2694
2831
2913
2950
2958
2951
2938
2923
2912
2905
2904
2909
2917
2915
2885
2801
2648
2425
2149
1861
1609
1432
1345
1326
1326
1289
1177
990
760
530
338
197
110
67
50
45
45
44
42
38
31
24
16
10
6
4
2
2
3
3
3
4
4
4
4
4
4
4
4
4
4
4
4
4
4
4
4
4
4
4
4
4
4
5
6
6
6
5
5
4
4
3
3
3
3
3
3
3
3
3
3
3
4
4
4
4
4
4
4
5
5
5
5
4
4
4
3
3
3
3
3
3
3
3
3
3
5
7
9
12
14
15
16
17
19
22
25
31
38
46
55
66
74
78
78
82
104
169
293
480
715
973
1209
1391
1496
1531
1531
1547
1624
1775
1981
2204
2395
2539
2628
2673
2691
2694
2689
2681
2671
2663
2659
2662
2672
2678
2664
2605
2484
2298
2064
1806
1571
1389
1284
1248
1247
1230
1149
995
787
563
371
225
135
88
66
58
56
56
56
54
49
42
32
22
14
8
6
4
4
3
3
3
3
4
5
6
8
9
10
11
11
11
11
10
10
9
9
9
9
9
9
9
9
9
9
9
9
9
9
10
11
11
11
10
9
8
6
5
4
3
3
3
3
3
3
3
3
3
3
3
3
5
6
9
12
14
16
17
17
16
15
15
15
15
15
15
15
15
15
15
16
17
18
20
21
23
26
30
36
43
52
64
77
91
106
118
126
127
127
143
205
345
569
870
1203
1510
1740
1868
1911
1912
1928
2004
2157
2368
2596
2802
2958
3062
3121
3148
3153
3144
3129
3114
3101
3095
3097
3106
3115
3106
3050
2914
2692
2393
2061
1754
1525
1397
1354
1353
1337
1260
1106
892
663
455
296
188
123
89
75
71
70
70
65
56
44
33
24
16
11
7
4
2
1
1
1
1
1
1
1
1
1
1
1
1
1
1
1
1
2
2
2
2
2
2
2
2
2
2
2
2
2
2
2
2
2
2
3
3
3
4
4
4
5
5
5
5
5
5
5
6
7
9
11
12
14
15
17
19
23
30
39
51
66
80
95
105
112
112
113
126
173
281
468
738
1058
1378
1642
1810
1880
1888
1893
1956
2108
2336
2599
2844
3035
3168
3248
3284
3294
3288
3275
3260
3248
3245
3249
3261
3272
3269
3228
3124
2940
2672
2353
2034
1770
1602
1531
1523
1516
1452
1298
1068
804
558
365
229
145
102
83
77
76
76
74
67
56
43
31
21
14
9
6
4
3
2
2
2
2
3
3
3
3
3
3
3
4
4
4
4
4
4
3
3
3
2
2
2
2
2
2
2
2
2
3
3
3
2
2
2
2
1
1
1
1
1
1
1
1
1
1
1
1
1
2
2
2
1
1
1
1
1
1
1
1
1
1
2
2
2
3
3
4
5
6
7
10
14
20
28
39
52
65
77
84
87
87
92
122
196
336
550
820
1114
1378
1571
1675
1703
1703
1732
1832
2010
2228
2446
2632
2771
2862
2914
2941
2947
2942
2929
2916
2907
2906
2912
2921
2924
2901
2831
2693
2481
2212
1918
1654
1462
1357
1329
1329
1299
1198
1021
802
584
396
256
163
107
75
61
55
54
54
52
45
37
27
19
12
9
6
5
4
4
4
4
4
4
4
5
5
5
6
6
6
6
6
5
5
5
5
5
5
5
5
5
5
5
5
5
4
4
4
4
4
6
7
9
9
10
10
10
9
9
8
8
8
8
9
9
10
10
11
11
11
11
12
12
14
15
17
18
18
18
18
17
16
16
16
16
17
18
20
22
24
28
33
40
46
54
64
74
84
96
107
114
116
115
120
151
233
390
630
937
1271
1571
1795
1909
1940
1939
1972
2091
2302
2564
2826
3046
3204
3302
3354
3375
3378
3370
3360
3348
3341
3340
3348
3360
3364
3342
3265
3110
2872
2567
2235
1935
1711
1595
1563
1563
1529
1409
1196
932
668
444
281
176
118
88
76
73
73
73
70
63
53
41
30
20
14
10
7
5
4
4
5
6
7
10
13
18
24
29
34
37
39
39
39
39
39
40
41
43
45
47
48
50
50
51
51
52
52
52
51
51
50
49
47
45
41
37
32
28
26
27
34
46
62
80
100
118
132
141
142
139
146
181
271
438
696
1035
1410
1763
2027
2177
2220
2220
2254
2382
2612
2906
3206
3463
3653
3776
3844
3873
3876
3865
3845
3826
3813
3811
3822
3838
3844
3818
3736
3573
3318
2981
2607
2254
1990
1841
1797
1797
1763
1636
1406
1112
812
555
363
236
159
118
99
92
92
92
89
81
68
53
38
27
20
14
11
9
8
8
8
8
8
8
8
8
7
7
6
6
5
5
5
5
5
5
5
5
5
4
4
3
3
3
3
3
3
3
3
2
2
2
2
2
2
2
1
1
1
1
1
1
1
1
1
1
1
1
2
2
2
2
3
5
6
8
9
10
10
10
10
10
11
11
11
11
11
11
11
12
13
16
21
28
39
52
65
77
88
97
106
113
119
120
119
119
132
177
274
442
683
990
1330
1643
1878
1994
2020
2022
2081
2248
2517
2827
3117
3345
3497
3581
3616
3624
3620
3612
3604
3597
3592
3594
3601
3610
3608
3572
3482
3319
3081
2776
2438
2125
1890
1774
1748
1747
1689
1521
1251
938
643
408
245
147
100
80
74
74
75
76
74
70
62
51
39
30
23
18
15
14
14
14
15
16
17
17
17
17
17
19
20
22
23
24
23
23
21
19
18
16
16
16
18
19
21
22
22
22
21
21
20
19
19
19
19
19
18
18
17
16
15
13
12
12
12
12
13
13
13
13
14
14
15
16
18
19
21
22
23
23
23
22
22
21
20
20
20
22
27
33
40
46
48
49
49
48
48
47
49
57
76
105
137
166
186
194
193
192
200
232
309
454
683
983
1317
1624
1853
1979
2015
2009
2025
2117
2312
2581
2869
3116
3293
3398
3449
3467
3462
3441
3410
3378
3357
3353
3371
3403
3428
3422
3359
3218
2989
2688
2355
2048
1818
1690
1650
1650
1628
1530
1333
1064
777
531
354
250
197
171
156
147
144
144
143
136
117
85
51
25
12
8
8
8
8
8
8
8
8
11
16
19
20
20
19
18
17
17
17
17
17
17
17
17
17
17
17
17
16
17
17
18
18
18
18
18
18
18
17
16
16
16
17
17
17
17
17
17
17
17
17
18
19
22
27
32
36
38
39
39
38
38
37
37
37
38
38
37
37
35
33
32
33
33
33
33
33
34
35
39
47
57
66
71
74
77
82
87
90
91
92
101
139
222
363
561
807
1077
1335
1532
1642
1671
1668
1705
1842
2083
2383
2671
2899
3050
3129
3159
3167
3165
3159
3150
3143
3139
3143
3154
3166
3166
3133
3052
2912
2716
2470
2203
1950
1759
1653
1625
1626
1588
1453
1217
924
645
422
271
185
145
127
121
121
123
124
121
113
102
91
81
76
74
74
73
72
70
66
61
55
51
50
53
55
52
44
36
29
26
25
25
25
25
24
22
20
19
18
18
19
22
25
29
33
35
35
35
34
33
33
33
32
29
26
24
23
24
25
25
26
29
36
43
49
52
53
53
52
52
50
47
43
39
35
34
34
35
35
35
36
39
42
44
46
47
47
45
44
45
48
53
62
74
87
98
107
113
119
124
127
127
127
135
164
240
384
602
896
1236
1569
1824
1962
1997
1996
2034
2170
2405
2688
2963
3195
3374
3490
3561
3603
3629
3640
3638
3633
3639
3662
3698
3734
3755
3744
3679
3541
3327
3036
2698
2365
2107
1966
1928
1928
1890
1753
1518
1236
963
734
553
426
340
280
240
220
216
215
205
179
143
107
81
66
60
60
63
65
66
66
66
66
67
67
67
67
67
66
64
58
52
46
42
41
40
40
40
41
42
43
43
42
43
46
53
60
63
62
61
60
60
60
60
59
59
60
65
75
89
97
98
99
107
128
154
171
175
174
179
191
204
214
218
214
202
189
179
175
174
176
179
183
185
185
185
184
179
169
156
149
151
155
152
139
122
118
131
149
158
160
156
149
143
147
181
267
416
624
864
1092
1282
1423
1522
1578
1595
1595
1611
1685
1848
2098
2402
2705
2957
3132
3227
3252
3239
3223
3220
3233
3251
3270
3286
3288
3258
3175
3030
2826
2591
2367
2178
2035
1935
1879
1863
1870
1863
1799
1642
1391
1084
777
520
338
233
195
191
189
176
150
122
99
83
74
67
63
60
57
55
53
53
52
52
52
52
47
38
29
23
22
23
23
22
22
22
22
22
23
25
26
27
27
27
27
29
32
34
35
32
29
25
24
23
23
23
22
23
25
27
27
26
26
26
27
28
29
29
29
29
28
28
29
30
30
29
26
23
21
20
20
20
20
21
21
21
20
19
18
18
19
21
25
28
34
41
51
62
76
91
106
119
128
130
130
138
178
291
504
837
1270
1750
2183
2509
2681
2726
2726
2781
2972
3304
3721
4144
4494
4736
4879
4945
4964
4961
4948
4932
4918
4913
4915
4926
4942
4949
4920
4816
4609
4281
3851
3373
2940
2614
2441
2396
2395
2339
2147
1814
1396
970
617
371
222
149
119
110
109
109
106
99
87
72
56
41
30
22
16
11
9
7
7
7
7
7
7
7
7
7
8
8
7
7
7
6
6
6
5
5
5
6
6
6
6
6
6
6
6
5
5
5
5
5
5
6
6
6
5
5
5
5
5
4
4
4
5
5
5
5
5
5
6
5
5
5
5
5
5
5
5
5
5
4
4
4
5
5
6
7
9
10
13
17
23
31
44
61
84
110
137
163
186
199
203
203
219
286
449
743
1192
1764
2380
2943
3354
3557
3599
3602
3705
4011
4522
5146
5751
6235
6563
6742
6812
6820
6801
6775
6753
6740
6738
6751
6775
6799
6802
6748
6593
6303
5857
5287
4671
4107
3697
3494
3451
3448
3343
3036
2523
1898
1290
802
469
282
199
174
171
172
168
156
135
109
81
57
39
27
19
16
15
15
15
15
15
15
15
15
16
16
16
16
17
18
19
19
19
19
18
17
16
14
14
14
14
14
13
12
12
11
11
11
12
12
12
12
12
12
12
12
12
11
11
10
9
8
8
7
8
8
8
8
9
9
10
11
12
13
13
13
12
11
10
9
10
10
12
13
13
14
15
15
15
15
15
17
19
23
29
38
50
65
82
100
117
130
135
134
138
171
272
475
795
1213
1676
2109
2441
2627
2682
2681
2729
2911
3251
3707
4186
4596
4888
5067
5150
5175
5170
5156
5141
5131
5130
5137
5152
5169
5179
5157
5064
4867
4551
4135
3672
3240
2906
2719
2663
2663
2615
2432
2093
1637
1157
746
452
270
180
146
139
139
136
126
110
89
69
51
36
25
16
11
7
5
4
3
3
3
3
4
4
4
3
3
3
3
2
2
2
2
2
2
2
2
2
2
2
2
2
2
2
2
2
3
3
3
3
3
3
2
2
2
2
2
2
2
2
2
2
2
2
2
2
2
2
2
2
3
3
3
2
2
2
2
2
2
2
2
3
3
5
6
8
9
11
13
15
19
25
36
50
70
92
116
140
161
174
179
179
190
243
379
637
1033
1545
2108
2629
3011
3208
3258
3257
3332
3572
3988
4507
5027
5450
5747
5913
5986
6003
5991
5969
5946
5927
5917
5920
5934
5955
5964
5926
5801
5549
5156
4645
4083
3562
3180
2983
2932
2932
2855
2614
2197
1676
1155
730
429
256
173
141
133
133
132
126
116
100
81
60
42
26
15
9
6
5
5
5
6
6
6
6
6
6
5
5
5
5
5
5
5
5
5
5
5
5
5
5
5
4
4
4
3
3
3
3
3
4
4
4
4
4
4
4
4
4
4
4
4
4
4
5
6
7
7
8
9
9
10
10
11
11
12
12
12
12
11
11
10
11
12
13
14
16
17
18
20
22
25
31
39
52
69
90
116
143
168
189
200
202
203
231
328
540
900
1404
2012
2628
3149
3481
3617
3629
3652
3823
4203
4757
5372
5933
6355
6625
6771
6825
6828
6808
6783
6763
6756
6763
6781
6809
6831
6823
6739
6533
6176
5674
5068
4451
3931
3597
3461
3447
3423
3250
2869
2314
1698
1134
709
433
279
211
191
188
188
179
160
132
102
72
48
29
15
8
4
2
1
1
1
1
1
2
2
2
2
2
2
2
2
2
2
2
2
2
2
2
2
2
3
3
3
3
3
4
4
4
4
4
4
4
4
3
3
3
3
3
3
3
3
3
3
3
3
3
3
3
3
3
3
3
3
3
3
3
3
3
3
3
3
3
3
3
4
5
6
7
8
10
14
21
30
43
59
77
96
113
128
138
142
142
148
180
273
460
767
1178
1658
2122
2496
2726
2805
2808
2841
3008
3341
3796
4283
4714
5024
5210
5294
5317
5310
5293
5274
5261
5258
5261
5275
5294
5306
5289
5205
5024
4721
4313
3834
3371
2997
2767
2687
2685
2651
2483
2150
1693
1205
772
459
267
173
137
128
127
127
122
111
96
79
60
42
27
18
11
7
5
3
3
2
2
2
2
2
2
2
2
2
2
2
2
2
1
1
1
1
1
1
1
1
1
1
1
1
1
1
1
1
1
1
1
1
1
1
1
1
1
1
1
1
1
1
1
1
1
1
1
1
1
1
1
1
1
1
2
2
2
2
2
2
2
2
2
2
2
2
2
2
3
4
5
8
12
19
28
41
59
80
100
119
134
141
142
144
166
246
424
744
1208
1780
2370
2866
3186
3305
3313
3349
3546
3957
4520
5117
5628
5993
6213
6323
6361
6361
6345
6325
6310
6306
6312
6329
6352
6371
6363
6293
6122
5806
5344
4773
4184
3688
3368
3248
3240
3204
3007
2596
2033
1434
922
554
330
215
167
154
153
152
145
131
110
86
62
41
26
17
11
7
5
3
3
3
3
3
3
3
3
3
3
3
3
3
3
3
3
2
2
2
2
2
2
2
2
2
2
2
2
2
2
2
2
2
2
2
2
2
2
2
2
2
1
1
1
1
1
2
2
2
2
3
3
4
5
5
5
5
5
4
4
4
4
4
4
4
5
5
6
8
10
11
13
15
17
21
29
41
58
80
106
133
159
179
192
196
196
214
290
478
818
1322
1957
2629
3228
3645
3837
3871
3878
4009
4354
4898
5541
6156
6641
6964
7139
7207
7215
7197
7171
7147
7132
7131
7142
7166
7192
7195
7133
6954
6619
6117
5483
4812
4213
3795
3603
3569
3560
3428
3081
2535
1891
1275
787
461
279
199
174
170
170
166
154
135
111
83
57
36
21
13
8
5
4
3
3
4
4
6
9
15
23
33
41
48
51
52
52
51
51
52
53
55
59
62
65
68
70
71
72
72
73
73
73
73
73
73
72
71
67
62
53
44
37
34
35
43
56
74
94
116
137
155
167
170
167
171
207
318
547
914
1401
1964
2510
2951
3215
3305
3307
3353
3561
3964
4510
5081
5576
5927
6134
6230
6258
6250
6229
6209
6195
6190
6196
6212
6233
6242
6216
6112
5888
5524
5038
4476
3931
3490
3226
3136
3134
3089
2881
2478
1932
1360
864
511
298
193
152
143
143
141
132
116
95
73
52
36
24
16
12
9
8
8
8
9
9
9
9
9
9
10
10
11
11
11
11
10
11
11
11
12
12
12
13
13
13
13
12
12
11
10
9
8
7
6
6
6
5
5
5
4
3
3
3
3
3
3
2
2
1
1
1
1
1
1
2
2
2
2
2
2
2
3
4
6
7
9
11
14
20
30
44
63
86
110
135
155
169
174
174
180
218
330
559
926
1430
2002
2557
2990
3242
3322
3323
3372
3579
3967
4470
4997
5451
5781
5978
6077
6111
6107
6087
6063
6043
6033
6037
6054
6076
6090
6067
5966
5744
5380
4878
4307
3753
3320
3068
2988
2987
2937
2729
2340
1836
1306
850
517
314
206
158
142
140
140
136
126
108
86
63
44
28
17
10
7
5
4
4
3
4
4
4
4
4
4
4
5
5
5
5
5
4
4
4
4
3
3
3
3
3
3
3
3
3
3
3
3
3
4
4
4
4
4
4
4
4
4
4
4
4
4
4
4
4
4
4
5
6
7
8
9
10
11
11
11
11
10
10
10
10
10
10
9
10
11
12
15
17
19
22
25
30
37
46
60
79
102
131
162
193
220
237
243
242
254
318
486
812
1308
1942
2634
3259
3715
3950
4008
4007
4102
4407
4925
5567
6207
6732
7100
7309
7400
7419
7403
7373
7345
7326
7320
7331
7352
7378
7387
7339
7182
6861
6369
5736
5045
4420
3964
3728
3670
3668
3571
3264
2744
2100
1456
927
552
334
229
191
183
183
179
166
144
116
88
62
41
25
15
8
5
4
3
3
3
3
3
3
4
4
4
4
4
4
4
4
4
4
4
4
4
4
4
4
4
4
4
4
4
4
4
4
4
4
4
4
4
3
3
3
3
2
2
2
2
2
2
2
2
2
2
2
3
3
3
3
4
4
4
5
5
5
5
5
5
5
5
5
5
6
7
8
9
10
11
13
17
25
37
54
77
102
130
158
180
195
200
199
208
259
390
648
1044
1565
2146
2692
3103
3326
3388
3387
3459
3699
4124
4669
5222
5692
6022
6217
6306
6327
6313
6287
6261
6242
6237
6247
6268
6292
6303
6268
6147
5895
5503
4983
4404
3858
3447
3223
3161
3161
3088
2847
2421
1875
1320
848
515
312
212
173
165
164
162
153
135
111
85
60
39
23
13
6
3
1
1
1
1
1
1
1
1
2
2
2
2
2
2
2
2
2
2
2
2
3
3
3
3
3
3
3
3
3
3
3
3
3
3
3
3
3
3
3
3
3
2
2
2
3
3
3
3
3
3
3
3
4
4
5
5
6
6
5
5
5
5
5
6
7
7
8
9
10
12
14
17
21
27
37
51
69
91
113
136
155
166
170
169
179
232
368
620
1002
1490
2028
2515
2862
3034
3070
3072
3161
3424
3849
4368
4870
5271
5537
5680
5735
5741
5727
5704
5686
5674
5671
5680
5698
5719
5724
5682
5552
5303
4924
4437
3900
3412
3066
2893
2857
2853
2763
2499
2074
1553
1049
646
376
227
162
142
138
138
134
123
107
86
64
43
27
17
10
6
4
3
3
3
3
3
3
3
3
3
3
3
3
3
3
2
2
2
2
2
2
2
2
2
2
2
2
2
2
2
2
2
2
2
1
1
1
1
1
1
1
1
1
1
1
1
1
1
1
1
1
1
1
1
1
1
1
1
1
2
2
2
2
2
2
2
2
3
3
5
6
7
8
9
11
14
19
27
40
58
80
106
134
160
180
192
195
196
215
288
461
774
1238
1828
2444
2991
3365
3537
3564
3573
3704
4043
4579
5204
5792
6261
6570
6734
6794
6798
6777
6752
6730
6719
6719
6733
6756
6780
6780
6719
6555
6246
5785
5197
4581
4035
3661
3488
3460
3450
3318
2978
2441
1816
1227
755
442
269
196
175
173
172
166
151
131
105
79
55
36
23
14
10
7
5
4
4
4
4
4
4
4
4
4
4
3
3
3
3
3
3
3
3
3
3
3
3
2
2
2
2
2
2
2
2
2
2
3
3
3
3
3
3
3
3
3
3
3
3
2
2
2
2
2
3
3
3
3
3
3
3
3
3
3
4
4
3
3
3
4
4
5
6
7
8
8
9
11
13
18
25
37
55
77
103
131
157
179
192
195
196
220
310
507
840
1305
1868
2440
2936
3262
3403
3418
3436
3589
3949
4485
5083
5628
6036
6289
6418
6462
6459
6437
6413
6394
6388
6391
6406
6429
6451
6442
6363
6172
5842
5380
4817
4245
3749
3422
3282
3266
3246
3092
2732
2194
1596
1050
639
381
245
190
176
175
174
165
145
119
92
66
44
29
18
12
9
7
6
6
6
6
7
7
7
7
7
7
7
7
7
7
7
6
6
5
5
5
5
5
4
4
3
3
3
3
2
2
2
2
2
2
2
2
2
2
2
2
2
2
2
2
2
2
2
2
2
2
3
3
4
4
5
5
5
6
6
6
6
6
6
7
7
8
8
9
9
10
11
13
16
22
29
40
53
68
84
99
114
125
131
131
132
151
212
353
593
947
1380
1836
2232
2495
2611
2625
2638
2753
3035
3452
3923
4354
4677
4880
4981
5013
5011
4997
4981
4970
4966
4969
4980
4998
5014
5008
4956
4821
4583
4231
3799
3343
2947
2683
2567
2553
2539
2423
2141
1723
1251
818
491
283
175
132
121
120
120
115
104
89
72
53
35
22
12
6
3
2
1
1
1
1
1
2
2
2
2
2
2
2
2
2
3
3
3
3
4
4
4
4
4
4
4
4
4
4
4
4
4
4
3
3
3
2
2
2
2
2
2
2
2
2
1
1
1
1
1
1
1
1
1
2
2
3
3
4
4
4
4
4
5
6
8
9
11
14
16
20
24
32
43
59
81
109
139
171
199
216
224
223
233
288
437
725
1181
1779
2451
3077
3541
3787
3848
3847
3943
4242
4753
5385
5999
6492
6827
7012
7092
7110
7094
7066
7039
7017
7006
7013
7034
7060
7071
7030
6890
6607
6153
5556
4884
4259
3795
3548
3487
3486
3389
3088
2576
1941
1325
829
490
297
207
173
166
166
163
154
136
112
84
58
37
23
14
9
7
6
5
5
6
6
6
6
6
6
6
6
5
5
5
5
5
5
5
5
5
5
5
5
5
5
4
4
4
3
3
3
3
3
2
2
2
2
3
3
3
3
3
3
3
3
3
3
3
3
3
3
3
3
4
4
4
4
5
5
5
6
6
6
6
6
6
7
9
11
13
15
17
19
22
27
34
46
62
84
110
138
164
185
198
201
201
218
288
461
780
1260
1867
2520
3110
3535
3748
3792
3794
3912
4264
4851
5570
6269
6837
7214
7415
7493
7501
7480
7455
7436
7429
7438
7459
7492
7521
7528
7474
7310
6996
6519
5912
5260
4670
4244
4031
3986
3982
3862
3508
2918
2198
1498
926
544
336
246
222
220
219
211
191
161
127
91
61
37
21
12
7
4
3
3
3
3
3
3
3
4
4
4
4
4
4
4
4
3
3
3
3
3
3
3
3
4
4
4
4
4
4
5
5
5
5
5
5
4
4
4
3
3
3
3
3
3
3
3
3
3
4
4
4
4
5
5
5
5
5
5
5
5
5
5
4
4
4
4
5
5
5
6
6
7
9
12
18
26
39
57
79
103
129
153
170
179
180
181
202
275
434
710
1098
1570
2066
2492
2774
2898
2912
2927
3055
3355
3803
4307
4761
5112
5330
5442
5479
5476
5456
5431
5409
5395
5393
5404
5425
5443
5438
5375
5223
4951
4564
4094
3598
3173
2891
2767
2752
2737
2609
2308
1860
1355
899
546
322
202
151
136
134
134
130
120
104
84
61
42
26
15
9
5
3
1
1
1
1
1
1
1
1
1
1
1
1
1
1
1
1
1
2
2
2
2
2
2
2
2
3
3
3
3
3
3
3
3
4
4
4
4
3
3
3
3
3
3
3
3
3
3
3
3
3
3
3
3
3
2
2
2
3
3
3
3
3
4
3
3
4
4
5
7
8
11
13
15
17
21
25
33
45
61
82
106
132
156
177
190
194
194
208
269
428
722
1162
1717
2315
2853
3234
3421
3459
3462
3568
3867
4353
4940
5510
5971
6286
6461
6532
6544
6528
6504
6483
6472
6473
6486
6510
6534
6539
6492
6343
6054
5616
5063
4466
3928
3547
3359
3321
3316
3208
2907
2419
1830
1258
794
475
292
209
181
177
177
172
159
136
110
82
58
39
25
15
10
6
5
4
4
4
5
5
5
5
5
5
5
4
4
4
4
3
3
3
3
3
3
3
3
3
3
3
3
3
3
3
3
3
3
2
2
2
2
2
2
2
2
2
2
2
2
2
2
2
2
2
3
3
3
3
3
3
3
3
3
3
3
3
3
2
2
2
3
3
3
4
5
5
7
9
12
18
26
39
58
82
110
140
168
190
202
204
205
224
301
478
798
1270
1860
2485
3040
3422
3604
3635
3643
3775
4114
4651
5276
5863
6324
6632
6796
6863
6870
6850
6822
6796
6780
6779
6793
6817
6840
6840
6778
6610
6296
5826
5238
4613
4059
3677
3495
3463
3454
3322
2982
2444
1819
1230
766
452
280
200
174
170
170
165
153
132
106
80
56
37
22
12
7
4
3
2
2
2
2
2
3
3
3
3
3
3
2
2
2
2
1
1
1
1
2
2
2
2
2
2
2
1
1
1
1
1
1
1
1
1
1
1
1
1
1
1
1
1
1
1
1
2
2
2
2
3
3
4
4
5
5
5
6
6
6
6
7
8
10
11
13
15
17
20
24
30
39
52
68
87
108
127
144
155
157
157
169
222
354
595
948
1396
1876
2301
2602
2743
2766
2771
2867
3123
3518
3980
4411
4741
4956
5069
5114
5118
5105
5086
5069
5059
5058
5066
5084
5101
5103
5060
4935
4698
4346
3899
3419
2994
2693
2553
2528
2522
2425
2166
1771
1307
873
540
322
202
150
132
129
130
126
117
101
82
61
43
29
18
11
7
5
4
4
3
3
3
4
4
5
6
7
7
7
7
7
7
6
6
6
5
5
5
6
6
6
6
7
7
7
7
7
7
7
7
7
7
6
6
5
5
4
3
3
3
3
3
3
3
3
4
4
5
5
6
6
6
7
7
7
7
7
7
7
7
7
7
7
8
8
8
9
10
10
11
12
13
16
20
26
36
50
70
94
119
143
163
177
183
182
190
233
357
603
999
1528
2118
2664
3074
3287
3337
3338
3427
3703
4158
4711
5248
5671
5956
6112
6178
6192
6176
6151
6129
6115
6112
6120
6137
6158
6168
6138
6022
5781
5387
4860
4271
3725
3314
3101
3050
3049
2959
2683
2227
1673
1136
711
423
259
183
155
150
150
147
136
118
96
73
53
35
22
14
9
7
5
4
4
4
4
4
4
4
4
3
3
3
3
3
3
3
3
3
3
3
3
3
3
3
3
3
3
3
3
3
3
3
3
3
3
3
3
3
3
3
3
2
2
2
2
2
2
1
1
1
1
1
1
1
1
1
1
1
1
1
1
1
1
1
1
1
1
2
3
5
7
9
11
13
15
17
21
26
36
51
70
94
122
148
169
181
183
184
207
287
469
782
1231
1777
2349
2853
3207
3374
3403
3408
3518
3817
4294
4864
5408
5839
6124
6287
6357
6370
6356
6332
6308
6292
6291
6301
6324
6343
6336
6268
6093
5784
5339
4794
4223
3719
3365
3197
3167
3160
3048
2748
2268
1696
1150
717
429
261
181
153
149
149
145
134
115
92
68
47
31
19
12
7
5
3
2
2
2
2
2
2
2
2
2
2
2
2
2
2
1
1
1
1
1
1
1
1
1
1
1
1
2
2
2
2
2
3
3
3
3
4
4
4
4
4
3
3
3
3
3
3
3
3
4
4
4
4
4
4
4
4
4
4
4
4
4
4
3
3
3
3
3
4
5
6
7
9
10
12
16
23
32
47
65
85
106
125
141
149
151
151
164
217
341
565
899
1317
1765
2161
2443
2579
2605
2608
2694
2928
3301
3748
4172
4510
4736
4858
4907
4910
4894
4873
4858
4850
4850
4860
4876
4892
4892
4848
4731
4510
4179
3761
3313
2917
2635
2498
2472
2468
2382
2147
1772
1324
898
558
329
201
142
125
123
123
117
106
90
71
53
37
24
14
8
4
2
2
1
1
1
1
1
1
1
1
1
1
1
1
1
1
1
1
1
1
1
1
1
2
2
2
2
2
2
2
2
2
2
3
3
3
3
3
3
3
3
3
2
2
2
2
2
2
2
2
3
3
3
3
3
4
4
5
5
5
5
5
4
4
4
4
4
4
4
5
6
7
8
9
11
15
20
26
36
49
66
88
112
136
157
171
176
175
186
239
380
638
1027
1531
2086
2598
2980
3182
3233
3233
3319
3594
4057
4628
5180
5625
5921
6083
6150
6161
6147
6125
6104
6090
6087
6095
6114
6136
6143
6103
5971
5717
5331
4828
4274
3762
3381
3178
3127
3126
3040
2764
2299
1728
1173
725
424
256
180
156
152
152
149
138
120
98
74
51
34
21
12
7
5
4
3
3
3
3
3
3
3
3
3
4
4
4
4
4
3
3
3
3
3
3
3
3
3
3
3
3
3
3
3
3
3
3
3
3
3
3
3
2
2
2
2
2
1
1
1
1
1
1
2
2
2
2
1
1
1
1
2
2
2
2
2
2
2
2
2
2
2
4
5
7
8
10
12
14
16
20
27
37
52
73
99
127
155
175
186
187
190
224
329
547
915
1419
2008
2598
3086
3393
3513
3521
3547
3719
4099
4643
5240
5784
6199
6465
6604
6658
6662
6644
6618
6596
6581
6581
6597
6622
6641
6624
6533
6323
5960
5459
4871
4282
3794
3487
3367
3358
3330
3157
2775
2229
1631
1084
666
396
251
187
168
166
166
160
147
126
100
74
51
34
20
12
7
5
3
3
3
4
4
5
5
5
6
7
9
11
11
12
12
11
11
11
11
11
11
11
12
12
13
13
14
14
14
14
15
15
14
14
13
13
13
12
12
11
9
8
7
7
7
7
7
7
7
7
7
7
7
6
6
6
6
6
6
6
5
5
4
4
5
6
7
9
11
13
14
15
17
19
22
27
34
46
61
78
97
114
128
135
136
136
153
215
351
592
946
1379
1843
2253
2541
2676
2699
2703
2795
3045
3440
3910
4357
4709
4941
5064
5115
5124
5113
5096
5079
5069
5069
5079
5097
5113
5110
5059
4930
4694
4343
3911
3448
3038
2750
2613
2589
2583
2490
2237
1841
1369
921
567
332
204
145
125
121
121
119
112
98
81
62
44
29
19
11
7
4
3
2
2
2
3
3
3
3
3
4
4
5
5
5
5
5
5
4
4
4
4
4
4
4
4
4
5
5
5
5
5
5
5
5
5
5
5
5
5
4
4
3
3
3
3
3
3
3
3
3
3
3
3
3
4
4
4
4
4
4
4
4
4
4
4
4
4
4
5
6
6
7
8
9
11
13
18
25
37
53
76
102
130
158
180
194
198
198
215
286
453
760
1217
1797
2441
3040
3480
3715
3776
3776
3865
4159
4662
5286
5910
6420
6769
6970
7058
7081
7067
7041
7015
6995
6989
6995
7015
7038
7039
6983
6825
6524
6071
5493
4850
4252
3811
3576
3514
3514
3423
3129
2625
1999
1374
861
508
300
200
162
154
154
152
144
128
107
83
60
41
26
17
10
7
5
4
4
4
5
5
6
8
10
13
18
23
29
33
36
37
36
36
35
36
37
39
42
45
47
49
51
52
53
54
54
54
54
54
54
53
53
52
50
47
42
36
31
27
26
29
37
51
68
90
112
130
144
149
148
148
167
240
407
707
1155
1735
2379
2968
3379
3566
3592
3611
3798
4254
4936
5696
6378
6873
7165
7301
7343
7340
7322
7304
7298
7303
7319
7345
7373
7394
7389
7325
7162
6863
6416
5835
5191
4602
4191
4004
3978
3959
3772
3316
2635
1876
1194
699
404
263
213
203
203
198
183
157
125
92
62
40
24
15
10
8
8
7
8
8
8
8
8
7
7
7
7
6
6
6
5
5
6
6
6
6
5
5
4
4
3
3
3
3
3
3
3
3
2
2
2
2
2
2
2
1
1
1
1
1
1
1
1
1
1
1
1
1
1
2
3
3
4
4
5
5
6
7
7
7
8
8
8
8
8
9
10
11
12
15
17
20
25
32
40
51
64
80
97
114
129
141
147
147
148
169
242
409
697
1100
1580
2060
2456
2708
2808
2816
2834
2966
3252
3668
4130
4544
4860
5067
5178
5223
5231
5219
5202
5186
5176
5175
5185
5201
5217
5212
5152
4994
4712
4313
3835
3357
2961
2709
2609
2600
2581
2449
2160
1742
1278
860
540
327
207
151
130
125
125
124
117
106
90
73
55
39
26
16
9
5
3
2
1
1
1
1
1
1
1
1
1
1
2
2
2
2
2
2
2
2
2
2
2
3
3
3
3
3
3
3
3
3
3
3
3
3
3
3
2
2
2
2
1
1
1
1
1
1
1
1
1
1
1
2
2
2
2
2
2
2
2
3
4
5
6
7
8
10
12
15
20
27
39
55
76
100
124
145
160
166
166
170
199
289
472
779
1204
1709
2230
2670
2958
3074
3083
3106
3263
3602
4081
4600
5062
5399
5608
5712
5749
5746
5726
5702
5684
5676
5681
5697
5717
5731
5713
5631
5454
5149
4725
4221
3701
3260
2972
2856
2846
2822
2663
2323
1843
1322
858
519
307
196
150
139
141
144
143
137
129
119
111
100
88
83
95
131
178
218
242
252
254
255
255
256
258
259
260
260
260
260
260
260
259
257
255
251
246
239
229
215
204
198
197
194
177
140
93
54
31
22
20
19
19
19
17
16
15
15
15
14
13
11
10
9
9
9
10
10
9
9
9
8
8
8
8
7
5
4
4
6
10
15
21
23
24
24
25
29
33
40
47
56
67
80
98
120
146
174
202
226
242
250
250
254
284
374
557
857
1274
1776
2283
2703
2974
3079
3088
3110
3258
3581
4041
4547
4988
5313
5515
5614
5644
5637
5612
5584
5560
5547
5547
5559
5578
5591
5574
5494
5318
5021
4605
4102
3590
3165
2889
2780
2772
2749
2600
2274
1810
1298
850
517
304
192
144
129
128
128
124
113
97
78
59
42
29
19
13
9
7
5
5
5
5
5
5
5
4
4
3
3
2
2
2
2
2
2
2
2
1
1
1
1
1
1
1
2
2
2
2
3
3
3
3
3
3
3
3
3
3
3
3
3
3
4
4
4
4
4
4
4
4
5
5
5
4
4
4
4
4
4
3
3
4
4
4
5
5
6
6
7
10
12
16
22
31
40
51
63
75
86
94
96
96
102
136
223
386
632
939
1272
1580
1804
1923
1953
1953
2006
2174
2462
2807
3146
3414
3594
3691
3730
3738
3732
3721
3710
3704
3703
3710
3723
3738
3744
3718
3638
3478
3235
2930
2598
2292
2069
1949
1919
1918
1865
1697
1410
1064
725
455
274
173
128
112
108
108
107
101
90
76
60
45
33
24
18
14
11
9
7
6
6
6
8
10
14
15
16
15
14
14
13
12
12
12
13
13
13
13
13
13
14
15
16
16
16
16
16
16
16
17
18
19
19
16
13
11
10
10
10
10
10
10
10
9
9
9
9
10
10
11
11
11
11
11
11
11
11
11
11
10
9
8
7
7
7
7
9
11
14
17
20
22
24
26
29
33
41
52
67
84
101
115
124
127
127
132
158
234
388
646
1007
1440
1865
2199
2396
2457
2456
2497
2667
2978
3378
3787
4125
4363
4506
4572
4592
4588
4572
4555
4543
4539
4546
4559
4575
4585
4570
4501
4351
4096
3737
3304
2879
2545
2348
2286
2286
2243
2070
1757
1354
943
604
364
219
149
122
115
115
114
109
98
82
64
49
35
25
19
15
13
12
12
12
12
12
12
12
13
13
13
13
13
13
12
12
12
12
11
11
11
12
13
14
14
13
13
11
10
9
9
8
9
9
10
11
12
12
12
12
12
11
11
11
10
10
9
9
9
9
10
10
11
12
13
14
14
15
15
15
15
15
15
15
14
13
12
12
13
16
19
22
24
25
26
27
29
33
39
50
63
80
96
110
123
129
130
131
148
209
354
606
966
1407
1848
2215
2450
2547
2554
2566
2679
2946
3340
3787
4197
4510
4710
4823
4870
4878
4868
4850
4835
4826
4826
4838
4859
4879
4877
4827
4691
4443
4085
3646
3206
2839
2603
2506
2497
2483
2369
2101
1706
1260
850
536
334
218
164
145
141
141
139
132
119
99
77
56
41
29
21
16
13
12
12
12
12
12
12
11
10
8
6
5
5
5
5
6
5
5
5
5
5
5
5
5
5
5
5
4
4
4
4
4
4
5
6
6
6
6
6
7
7
8
7
7
6
6
7
7
8
8
9
9
10
10
11
11
12
12
12
12
12
12
11
10
10
9
10
11
12
12
13
13
14
14
16
18
21
27
37
51
70
90
111
128
137
138
139
156
215
339
547
829
1162
1502
1790
1988
2081
2097
2099
2154
2316
2591
2930
3263
3537
3728
3836
3883
3890
3878
3859
3841
3829
3824
3831
3845
3857
3849
3797
3678
3473
3192
2859
2519
2231
2034
1940
1922
1920
1864
1700
1424
1084
751
475
282
170
117
99
96
96
93
85
72
56
39
26
16
10
5
3
1
1
1
1
1
1
2
2
2
2
2
2
2
2
2
3
3
3
3
3
3
3
3
3
3
3
3
4
4
4
5
5
6
7
7
6
6
6
5
5
6
6
6
6
6
6
6
6
6
6
6
6
6
6
6
7
8
9
9
9
10
10
11
13
16
19
22
26
29
33
38
43
50
57
65
69
72
73
73
73
74
81
111
194
367
661
1063
1510
1913
2200
2349
2393
2392
2406
2470
2595
2774
2984
3210
3436
3639
3806
3924
3990
4015
4018
4016
4017
4024
4036
4051
4061
4049
3980
3818
3531
3132
2685
2282
1994
1844
1799
1799
1784
1718
1592
1411
1199
970
741
533
361
238
166
135
126
126
124
117
105
89
71
53
39
28
20
16
15
15
16
17
18
18
18
17
16
15
15
15
15
15
14
14
12
12
11
11
11
12
12
12
12
12
12
12
12
12
12
12
11
9
8
7
7
6
5
5
4
4
3
3
3
3
4
4
4
4
4
5
5
6
7
8
8
8
8
8
8
8
8
10
12
13
15
15
15
15
16
17
19
20
21
23
24
26
28
30
31
31
32
32
37
47
64
89
117
141
157
163
163
167
197
285
456
725
1079
1468
1828
2102
2259
2311
2311
2333
2451
2696
3040
3427
3773
4036
4198
4280
4306
4303
4285
4263
4242
4233
4236
4250
4269
4280
4259
4176
4006
3737
3384
2995
2635
2359
2200
2147
2146
2122
2002
1755
1409
1020
673
410
247
165
133
126
127
125
117
103
84
63
44
27
17
11
8
6
6
6
6
6
6
6
6
7
7
8
9
9
10
10
11
12
12
12
11
11
12
12
12
12
12
12
13
13
13
14
15
15
15
15
15
15
14
14
13
13
14
15
15
15
14
13
12
12
12
13
13
13
13
13
13
13
14
14
15
16
18
21
23
24
24
24
25
27
31
36
39
42
46
52
60
68
75
78
81
82
83
87
95
108
123
135
138
137
145
191
305
504
790
1130
1483
1790
2008
2114
2134
2130
2173
2314
2549
2843
3129
3356
3513
3606
3651
3669
3671
3668
3660
3649
3639
3634
3637
3645
3642
3599
3488
3288
3002
2664
2311
2004
1786
1677
1653
1653
1605
1461
1220
920
625
390
226
129
81
62
57
57
56
54
49
42
35
27
21
15
11
7
6
4
4
3
3
3
3
3
2
2
2
4
5
6
7
8
8
9
9
9
9
10
11
12
14
16
17
17
17
17
17
16
16
16
17
17
17
17
17
16
15
14
13
12
12
12
12
13
13
13
13
12
11
10
8
6
6
6
6
7
7
7
7
7
6
6
7
8
9
11
13
14
15
16
16
16
18
24
33
46
62
78
92
102
109
111
110
114
136
203
344
573
881
1221
1534
1758
1866
1890
1889
1928
2046
2237
2466
2695
2887
3031
3121
3165
3178
3172
3158
3142
3128
3119
3116
3119
3127
3132
3118
3057
2921
2693
2387
2048
1735
1511
1403
1379
1378
1337
1217
1025
795
566
373
228
134
84
61
54
53
53
53
52
48
43
35
26
17
11
7
5
4
3
2
2
1
1
1
2
2
3
3
4
5
5
5
5
5
5
5
5
5
5
5
5
5
5
6
7
7
8
8
8
8
9
9
10
10
10
10
9
8
8
7
7
7
7
8
10
13
18
22
24
26
26
25
25
25
25
24
24
24
24
24
24
24
23
23
23
23
23
24
26
29
35
43
53
65
75
82
87
91
95
99
101
101
102
115
160
257
420
649
925
1220
1478
1655
1742
1758
1760
1816
1965
2205
2480
2740
2953
3099
3185
3227
3241
3240
3232
3223
3221
3227
3242
3263
3284
3290
3259
3171
3013
2786
2510
2216
1958
1782
1696
1680
1678
1622
1472
1231
955
691
473
319
223
169
143
134
132
132
128
118
101
80
57
39
25
17
13
12
12
12
11
10
9
9
9
9
9
9
9
10
11
13
15
17
19
20
22
23
23
22
23
28
37
47
53
56
57
58
58
58
58
58
58
59
60
61
61
61
62
63
63
62
60
58
59
61
63
63
64
63
62
57
49
39
34
32
31
30
30
30
33
36
39
39
38
37
37
37
36
36
42
54
66
72
74
72
72
75
79
85
90
94
95
93
93
100
132
215
374
619
924
1228
1466
1602
1645
1646
1666
1756
1934
2166
2405
2607
2753
2847
2896
2921
2932
2933
2930
2924
2920
2921
2929
2939
2949
2947
2919
2840
2684
2440
2135
1830
1591
1456
1414
1414
1394
1304
1127
893
648
436
277
176
126
107
112
125
139
146
146
141
135
128
121
115
110
106
103
101
99
97
96
97
101
104
107
107
107
106
104
104
103
103
101
92
74
55
42
38
40
43
41
37
34
34
34
34
34
35
36
38
38
36
33
29
27
26
27
27
27
27
26
26
26
26
27
27
26
22
18
16
15
15
14
13
13
13
14
13
12
10
9
7
6
5
5
5
5
5
6
7
9
11
13
17
24
34
48
64
80
98
115
130
139
141
141
154
210
342
566
886
1289
1715
2097
2373
2509
2537
2541
2634
2891
3300
3787
4241
4585
4789
4882
4908
4904
4889
4873
4858
4848
4846
4856
4876
4896
4898
4849
4720
4496
4176
3772
3347
2966
2691
2555
2528
2524
2431
2173
1763
1276
821
475
267
166
130
121
120
120
117
109
96
77
54
34
19
11
9
8
8
8
9
8
7
6
6
6
6
6
5
4
3
2
2
2
2
2
2
2
2
2
2
2
3
3
3
3
3
3
3
3
3
3
4
4
5
6
7
7
7
7
8
8
8
9
8
8
8
8
8
8
8
9
11
12
14
15
17
18
20
20
20
20
20
20
20
20
20
21
22
22
23
24
25
26
27
31
36
46
61
78
97
113
128
138
143
143
142
154
208
344
603
999
1502
2022
2461
2742
2853
2861
2883
3027
3333
3765
4244
4668
4980
5180
5283
5321
5322
5308
5288
5275
5271
5280
5299
5328
5355
5363
5320
5190
4934
4538
4034
3513
3072
2790
2678
2669
2647
2502
2195
1762
1282
857
544
341
233
185
169
166
166
162
150
129
103
73
45
24
11
4
2
2
2
2
2
2
3
3
4
5
5
6
6
5
5
4
4
4
4
4
4
4
5
5
5
5
5
5
5
5
6
7
8
8
8
8
7
7
6
5
5
4
4
4
4
4
4
4
4
4
5
6
7
9
10
11
12
12
12
12
12
11
10
9
9
9
9
9
10
12
15
18
20
21
22
23
25
30
37
48
61
75
88
99
107
111
110
113
132
191
307
494
747
1041
1342
1606
1784
1864
1873
1879
1956
2145
2432
2750
3038
3255
3394
3469
3503
3511
3505
3492
3477
3469
3473
3489
3514
3536
3536
3491
3382
3198
2946
2652
2351
2087
1910
1830
1819
1812
1732
1539
1251
931
643
424
283
204
164
146
140
139
138
134
121
101
76
52
33
20
13
9
8
8
8
8
8
8
8
8
8
8
8
8
9
10
11
11
10
9
8
8
9
9
8
8
7
6
6
6
6
6
6
6
6
6
7
8
9
9
10
10
9
9
8
7
6
6
6
6
7
8
9
10
10
10
10
10
10
10
10
11
13
15
16
16
15
14
13
13
14
15
17
20
23
25
29
33
38
45
53
62
73
84
96
105
112
114
114
119
149
228
380
620
932
1285
1612
1858
1991
2024
2023
2067
2215
2470
2788
3105
3366
3544
3643
3686
3697
3691
3679
3669
3662
3663
3670
3681
3692
3695
3671
3595
3443
3203
2890
2537
2210
1964
1831
1797
1797
1752
1602
1344
1024
704
441
259
155
104
85
80
80
78
73
62
49
35
25
16
10
6
4
3
3
3
3
3
3
3
3
3
3
3
2
2
1
1
1
1
1
1
1
1
1
1
1
1
1
1
1
1
2
2
2
3
3
3
3
3
3
3
3
3
4
4
5
6
7
8
9
10
11
13
14
15
15
15
15
15
16
17
18
19
19
20
21
22
23
25
27
28
30
33
39
49
66
86
108
126
137
140
139
143
169
242
382
606
901
1240
1579
1848
2010
2068
2070
2090
2201
2429
2748
3093
3412
3656
3822
3916
3953
3955
3939
3919
3903
3899
3907
3928
3950
3962
3947
3882
3746
3524
3231
2891
2551
2281
2118
2059
2056
2035
1923
1694
1374
1027
707
461
294
199
158
148
149
149
143
128
108
85
65
49
38
30
25
23
22
22
21
21
21
21
21
22
22
22
22
23
24
24
24
22
20
17
15
14
15
16
16
15
13
11
10
10
10
10
10
10
10
10
10
10
10
10
10
9
9
8
7
6
6
5
5
5
5
4
4
3
4
5
7
8
10
11
11
11
11
11
12
13
15
16
17
18
19
19
20
20
21
23
27
35
45
60
78
97
113
122
124
123
124
142
188
276
417
615
855
1113
1348
1524
1620
1643
1642
1675
1787
1984
2230
2482
2699
2861
2965
3019
3038
3036
3020
3001
2987
2985
2994
3010
3022
3016
2979
2897
2763
2570
2332
2074
1839
1662
1566
1543
1545
1512
1400
1202
955
703
484
321
213
151
121
109
108
108
105
99
89
76
63
51
40
32
27
25
26
27
29
29
29
27
26
25
25
25
25
25
25
25
25
26
26
26
25
25
25
25
23
20
16
15
15
15
13
11
9
8
8
7
7
7
7
7
8
9
9
9
9
9
10
11
12
13
14
16
16
16
16
16
16
16
16
16
16
16
15
15
14
14
14
14
14
14
14
14
15
16
17
17
17
17
18
21
29
42
62
86
110
128
136
138
138
152
195
292
464
716
1042
1396
1723
1963
2087
2114
2114
2169
2337
2611
2944
3263
3526
3707
3814
3862
3876
3867
3847
3823
3801
3790
3792
3804
3820
3823
3793
3706
3541
3293
2967
2614
2287
2046
1922
1894
1893
1837
1669
1394
1062
743
481
299
191
138
115
110
109
109
106
100
89
76
60
44
30
20
12
8
7
8
10
12
15
16
17
17
17
17
16
14
14
16
17
17
17
18
21
25
28
29
29
29
29
29
29
29
29
29
29
28
26
24
22
20
20
20
21
22
23
23
22
20
19
19
20
20
18
15
13
13
14
15
15
15
16
16
17
17
17
17
17
17
17
17
17
17
17
17
16
16
16
17
18
21
25
31
41
53
67
81
93
102
106
106
107
123
173
285
472
736
1050
1363
1627
1795
1862
1867
1879
1969
2176
2483
2830
3142
3376
3522
3597
3622
3620
3607
3593
3584
3580
3582
3590
3599
3605
3595
3550
3443
3262
3002
2693
2382
2119
1951
1883
1878
1866
1777
1570
1264
917
604
369
219
139
107
99
98
97
92
82
70
58
48
41
35
29
23
18
13
10
9
10
11
12
12
11
10
9
8
7
7
7
8
8
8
8
8
9
9
9
10
10
10
10
10
10
10
10
10
9
8
6
4
4
3
3
4
4
4
5
4
4
4
3
3
4
4
4
4
4
5
5
7
8
8
9
9
9
9
9
9
10
10
11
12
13
14
16
17
19
20
21
22
23
25
29
36
46
62
79
96
108
113
112
114
136
201
325
522
786
1093
1399
1645
1794
1844
1844
1867
1977
2189
2469
2750
2984
3147
3239
3285
3301
3299
3289
3273
3256
3243
3239
3244
3254
3259
3243
3181
3059
2862
2598
2291
1984
1738
1589
1539
1537
1513
1401
1188
906
624
388
225
131
83
64
59
58
58
57
52
43
33
22
13
8
4
3
2
3
4
5
5
5
5
5
5
6
6
6
6
7
8
10
12
14
15
16
17
17
17
17
18
20
23
28
33
36
37
37
36
35
34
35
35
35
35
34
36
39
43
46
47
46
44
42
41
40
39
40
40
40
40
38
35
32
30
30
31
31
31
32
36
40
43
44
44
44
45
43
41
37
36
37
43
52
64
77
92
106
120
133
144
150
153
151
150
161
205
298
457
679
945
1222
1466
1632
1706
1715
1721
1789
1956
2202
2472
2710
2887
2997
3053
3074
3074
3062
3047
3037
3035
3041
3053
3065
3071
3060
3017
2924
2766
2543
2274
1992
1746
1578
1504
1495
1487
1417
1249
1003
733
492
310
191
123
89
75
72
72
70
61
48
34
23
17
14
12
11
10
9
8
8
8
8
7
7
7
7
8
8
10
11
13
15
16
18
19
19
19
19
20
24
29
34
39
41
42
42
42
42
42
42
43
43
43
43
43
44
44
43
41
39
37
35
34
33
32
32
32
32
30
27
23
19
16
15
15
15
15
15
15
15
15
15
15
16
16
16
17
18
18
19
19
21
23
27
33
42
54
67
80
92
100
103
102
100
108
151
259
456
738
1072
1405
1669
1832
1893
1897
1910
1993
2170
2422
2703
2961
3157
3286
3362
3401
3413
3408
3396
3383
3373
3369
3374
3388
3409
3420
3396
3301
3110
2829
2496
2164
1901
1739
1678
1674
1659
1576
1399
1146
864
606
409
277
197
151
130
123
121
122
122
119
110
95
74
54
35
22
15
14
14
13
12
11
13
17
22
26
28
28
28
29
29
29
29
29
31
32
33
32
31
30
30
31
32
32
32
32
31
31
32
33
34
34
32
28
23
19
17
16
17
17
17
17
17
16
15
15
15
16
16
15
13
11
10
10
10
11
13
14
14
13
12
13
15
17
17
17
17
17
17
17
19
22
28
36
50
70
97
125
153
174
183
185
185
190
209
251
330
456
643
896
1196
1508
1770
1936
2000
2003
2029
2157
2409
2736
3067
3340
3527
3630
3677
3689
3675
3648
3620
3606
3614
3638
3666
3685
3680
3644
3568
3444
3263
3018
2722
2408
2146
1987
1943
1962
1946
1820
1568
1248
927
660
472
360
298
268
256
257
260
257
243
218
191
167
153
149
153
163
173
181
185
186
185
184
180
173
169
169
169
164
161
167
186
206
219
221
218
221
235
255
270
273
272
273
275
275
269
255
239
226
220
221
221
213
196
182
175
174
175
175
169
154
131
111
100
100
102
98
82
58
41
36
37
36
34
31
30
30
34
40
45
45
45
56
77
101
119
126
126
123
125
129
135
145
166
206
277
369
458
521
547
549
555
587
645
715
792
877
982
1124
1308
1530
1753
1920
1989
1982
1967
2008
2143
2378
2663
2916
3092
3190
3232
3227
3183
3114
3040
2980
2955
2974
3018
3051
3042
2996
2926
2840
2731
2582
2390
2166
1943
1765
1675
1658
1658
1610
1474
1239
950
692
510
402
337
298
269
245
229
227
227
208
158
94
43
19
13
12
13
15
19
24
28
32
36
38
39
41
42
42
42
44
47
51
52
52
53
55
56
56
56
55
54
53
54
56
62
75
94
110
114
112
107
106
114
128
143
150
151
151
157
172
188
197
202
202
202
203
206
210
213
217
219
220
221
220
214
201
182
164
154
152
153
152
142
125
108
98
96
96
90
73
54
41
36
41
54
76
112
154
191
212
217
216
218
237
284
374
519
727
991
1273
1518
1694
1783
1805
1804
1825
1893
2017
2180
2363
2545
2708
2840
2928
2971
2969
2935
2887
2847
2828
2826
2831
2831
2814
2769
2682
2541
2338
2081
1806
1567
1395
1308
1286
1286
1266
1199
1077
916
736
555
395
266
174
118
97
97
105
110
106
101
106
118
127
130
126
123
123
128
132
133
132
131
131
131
130
130
128
126
125
123
119
117
116
116
113
106
98
92
92
91
82
66
54
50
50
50
46
37
27
20
15
14
14
14
15
16
16
16
18
29
44
54
57
57
60
67
75
81
87
93
101
108
114
116
115
117
122
127
129
129
128
128
128
129
134
142
148
148
147
146
147
148
148
150
167
211
271
326
365
384
385
378
373
379
404
452
536
674
883
1170
1510
1844
2102
2237
2268
2258
2298
2438
2666
2932
3192
3421
3616
3773
3872
3911
3897
3858
3815
3791
3797
3828
3870
3907
3926
3916
3865
3750
3554
3269
2930
2613
2391
2293
2279
2285
2239
2101
1877
1604
1328
1088
890
732
612
525
480
471
482
490
478
446
405
369
344
324
301
279
263
260
260
248
217
183
164
160
160
157
153
152
155
159
163
167
168
165
157
144
131
123
124
129
135
133
121
101
85
79
81
84
85
81
75
72
71
72
73
73
73
72
69
65
60
56
55
56
59
62
64
64
61
55
48
40
35
34
34
33
29
26
25
24
24
23
21
20
19
18
17
17
19
22
27
33
41
50
61
76
95
118
139
154
160
161
163
182
233
330
484
702
978
1291
1598
1851
2014
2078
2082
2098
2202
2437
2783
3168
3510
3762
3907
3973
3986
3974
3952
3928
3909
3901
3907
3923
3938
3935
3897
3809
3659
3443
3168
2856
2549
2297
2133
2069
2065
2051
1948
1715
1369
980
633
375
222
145
119
113
113
113
110
102
90
74
56
41
28
20
15
12
11
10
10
10
10
10
10
9
8
8
9
10
12
14
14
14
14
14
14
14
14
14
14
15
16
18
19
20
21
22
22
22
22
22
22
22
21
21
21
21
24
27
32
39
47
58
69
80
88
93
94
94
102
138
227
393
650
981
1341
1667
1901
2013
2034
2038
2099
2262
2526
2839
3139
3383
3557
3664
3720
3739
3738
3728
3718
3712
3711
3714
3721
3726
3722
3689
3604
3442
3191
2862
2504
2179
1944
1832
1811
1808
1746
1583
1319
1005
704
458
280
168
107
79
71
71
72
73
72
69
65
60
56
52
48
43
38
35
35
37
42
45
47
47
47
48
48
48
48
49
52
54
54
54
54
55
55
51
45
41
39
39
39
38
37
37
38
40
40
39
35
32
31
34
40
46
50
52
53
51
49
48
48
48
48
47
45
44
43
42
41
41
40
41
41
41
39
36
32
30
29
29
28
25
21
15
12
10
10
10
10
10
9
9
8
8
8
8
8
8
8
8
8
8
10
13
19
25
33
41
50
58
68
78
90
104
117
128
136
138
139
147
181
261
411
630
912
1225
1526
1766
1916
1974
1980
1990
2065
2234
2486
2774
3055
3282
3441
3533
3574
3584
3577
3562
3548
3540
3539
3548
3563
3573
3558
3496
3360
3150
2871
2559
2258
2017
1868
1810
1805
1795
1720
1548
1291
997
708
473
306
205
155
135
129
129
129
126
119
108
93
74
55
38
25
16
12
11
11
12
14
16
17
17
16
15
14
14
14
14
13
13
12
12
12
12
12
11
11
11
11
12
12
13
13
13
12
12
12
11
9
7
5
4
4
4
5
6
6
6
6
6
6
6
6
6
6
8
10
12
15
18
20
21
22
22
22
22
23
24
24
24
24
24
24
24
25
26
27
29
31
33
37
41
47
54
61
68
75
81
85
87
87
85
92
128
221
384
613
871
1122
1325
1453
1509
1516
1519
1564
1678
1859
2076
2287
2462
2583
2652
2685
2692
2688
2679
2672
2667
2667
2672
2683
2696
2700
2671
2582
2421
2192
1934
1682
1479
1351
1295
1287
1283
1238
1122
939
721
507
330
206
132
93
79
75
75
74
71
64
53
39
26
15
8
3
1
1
1
1
1
1
1
1
1
1
2
2
2
2
2
2
2
2
2
2
2
2
2
2
2
2
2
2
1
1
1
1
1
2
3
6
9
14
19
26
33
42
52
64
76
85
92
93
93
100
126
188
296
459
672
919
1171
1384
1521
1574
1577
1591
1670
1833
2055
2288
2488
2637
2729
2778
2799
2802
2796
2785
2773
2765
2763
2769
2777
2779
2761
2704
2599
2438
2227
1982
1731
1519
1382
1329
1326
1313
1233
1070
846
611
409
256
159
104
76
64
60
59
59
58
53
45
37
28
21
17
14
11
9
8
6
6
5
5
5
5
5
5
5
4
4
3
2
2
2
2
2
2
2
2
2
2
2
2
2
1
1
1
1
1
1
1
1
1
1
1
1
1
1
1
1
1
1
1
1
1
1
2
2
2
2
3
3
4
4
5
6
6
7
7
7
7
7
8
8
9
10
12
13
15
17
19
22
26
32
40
48
60
73
87
99
106
108
107
116
154
243
401
631
912
1207
1471
1663
1764
1789
1788
1821
1936
2142
2410
2697
2952
3146
3270
3332
3353
3351
3339
3327
3317
3314
3317
3326
3335
3334
3303
3219
3065
2839
2559
2266
2002
1810
1709
1683
1683
1649
1533
1325
1055
767
509
312
184
116
88
82
81
80
75
67
56
45
36
27
20
13
9
6
4
3
2
2
2
2
2
3
3
3
3
3
3
3
3
3
3
3
3
3
3
3
3
3
3
3
3
3
3
3
3
2
2
2
2
2
2
2
2
2
2
2
2
2
2
2
2
2
3
3
3
4
4
4
4
5
5
5
6
6
6
6
6
7
7
8
9
10
11
12
14
17
20
24
30
37
46
55
66
76
85
91
93
93
98
123
194
326
523
769
1038
1285
1472
1573
1600
1599
1624
1720
1896
2124
2357
2552
2690
2773
2813
2826
2824
2815
2805
2795
2788
2788
2795
2804
2808
2789
2723
2593
2397
2151
1882
1636
1448
1348
1320
1320
1293
1196
1019
789
554
356
216
129
84
63
56
55
55
54
51
45
36
26
18
11
7
4
3
2
2
2
2
2
2
2
2
2
2
2
2
2
2
2
2
2
2
2
2
2
2
3
3
3
3
3
3
2
2
2
2
2
2
2
2
2
2
2
2
2
2
2
2
2
2
1
1
1
1
1
2
2
2
2
2
2
2
2
2
2
2
2
2
2
2
2
2
2
2
3
3
4
4
6
8
10
15
22
31
43
58
75
91
104
112
113
114
128
182
294
481
739
1047
1360
1630
1812
1899
1915
1916
1964
2100
2330
2611
2892
3125
3290
3386
3430
3440
3434
3419
3402
3388
3380
3381
3390
3402
3399
3354
3249
3065
2809
2503
2190
1920
1738
1651
1635
1633
1585
1448
1219
937
655
420
252
151
100
81
75
75
75
73
67
58
48
36
24
15
9
5
2
1
1
1
1
1
1
1
1
1
1
1
1
1
1
1
1
1
1
1
1
1
1
1
1
1
1
1
1
1
1
1
1
1
1
1
1
1
1
1
1
2
2
2
2
2
2
2
2
2
2
2
2
2
3
3
3
4
5
6
8
10
12
14
16
19
23
28
37
47
60
75
88
98
105
106
106
118
166
278
470
746
1080
1427
1727
1935
2035
2054
2055
2107
2259
2510
2821
3126
3382
3562
3667
3714
3725
3718
3705
3691
3679
3673
3673
3681
3690
3687
3648
3542
3354
3080
2748
2402
2102
1894
1793
1774
1772
1719
1565
1313
999
692
434
252
144
91
72
68
68
68
66
61
54
46
36
27
18
12
8
5
4
3
3
2
2
2
3
3
3
3
3
3
2
2
1
1
1
2
2
2
2
2
2
2
2
2
2
2
2
2
3
3
3
3
3
3
4
4
4
4
4
4
4
4
4
5
5
5
5
6
6
6
6
6
7
7
9
10
10
10
10
9
9
10
10
10
10
11
11
12
12
14
15
17
20
26
33
42
52
64
73
81
85
85
85
91
116
179
298
481
722
985
1226
1403
1496
1520
1520
1553
1661
1843
2071
2300
2496
2639
2729
2777
2794
2793
2783
2771
2763
2761
2764
2773
2782
2784
2765
2705
2588
2409
2169
1907
1667
1489
1396
1372
1372
1337
1229
1047
817
587
390
245
151
98
73
65
63
63
62
57
49
40
30
22
15
10
7
4
3
1
1
1
1
1
1
1
1
1
1
1
1
1
1
1
1
1
1
1
2
2
2
2
2
2
2
2
2
2
1
1
1
1
1
1
1
1
1
1
1
1
1
1
1
1
1
1
2
2
3
3
4
6
10
16
26
39
55
73
92
108
120
125
125
128
149
213
345
564
865
1218
1579
1873
2056
2123
2126
2148
2260
2478
2772
3079
3336
3521
3638
3696
3718
3717
3704
3686
3668
3656
3651
3656
3666
3674
3662
3604
3476
3260
2960
2607
2247
1953
1771
1703
1700
1677
1565
1346
1052
745
487
299
179
115
83
71
69
68
68
64
56
47
36
25
17
10
6
3
2
1
1
1
1
1
1
1
1
1
1
1
1
2
2
2
2
2
2
2
2
2
3
3
3
3
4
4
4
4
4
4
5
5
5
5
5
5
5
4
4
4
4
4
3
3
3
3
3
3
4
4
4
4
4
4
4
4
4
4
4
3
3
3
3
4
4
5
5
6
6
7
8
10
13
17
22
30
39
51
63
76
88
96
100
101
103
122
180
304
507
777
1077
1359
1573
1684
1714
1713
1747
1866
2074
2331
2588
2800
2947
3029
3067
3077
3072
3061
3048
3037
3030
3029
3035
3043
3048
3033
2978
2856
2655
2386
2086
1805
1592
1480
1450
1450
1416
1296
1088
830
572
359
209
123
79
62
57
57
57
54
49
41
32
23
17
12
9
7
6
5
4
3
3
2
2
2
2
2
2
2
2
2
2
2
2
2
2
2
1
1
1
1
1
1
1
1
1
1
1
1
1
1
1
1
1
1
1
1
1
1
1
1
1
1
1
1
1
1
1
1
1
1
1
1
2
2
3
3
4
4
4
4
4
4
5
5
7
8
10
12
15
18
23
28
35
43
54
67
81
94
105
111
113
113
123
163
256
423
664
958
1265
1541
1739
1843
1868
1868
1903
2017
2218
2474
2735
2956
3116
3214
3264
3282
3279
3268
3254
3243
3239
3242
3251
3260
3258
3223
3133
2967
2727
2433
2127
1851
1653
1549
1523
1523
1487
1371
1168
910
646
421
258
154
98
71
63
61
61
59
53
43
32
23
14
9
5
3
2
1
1
1
1
1
1
1
1
1
1
1
1
1
1
1
1
1
1
1
1
1
1
1
1
1
1
1
1
1
1
1
1
1
1
1
1
1
1
1
1
1
1
1
1
2
3
4
4
5
6
6
8
10
14
20
30
43
59
78
98
114
124
128
128
134
168
255
423
687
1034
1422
1797
2085
2253
2308
2308
2339
2475
2733
3072
3425
3731
3953
4090
4157
4179
4178
4164
4145
4127
4115
4112
4119
4130
4134
4110
4030
3868
3608
3264
2878
2505
2217
2050
1994
1993
1961
1825
1567
1227
873
566
342
201
127
95
83
81
81
80
75
68
57
46
35
26
18
13
9
5
3
1
1
1
1
2
2
2
2
2
2
2
2
2
2
2
2
3
3
4
4
4
4
4
4
4
4
5
6
9
15
22
32
41
50
58
63
66
66
67
75
105
170
278
428
605
783
928
1014
1042
1042
1059
1133
1269
1437
1596
1716
1792
1832
1846
1846
1840
1830
1821
1812
1807
1806
1809
1813
1816
1809
1780
1716
1608
1458
1281
1103
958
872
844
843
826
752
616
448
289
169
92
51
34
28
26
26
26
25
22
17
12
7
4
2
1
1
2
4
8
12
16
21
25
28
30
30
31
34
47
77
133
217
325
441
538
603
625
626
636
684
774
890
998
1081
1134
1160
1169
1171
1168
1164
1159
1156
1155
1155
1157
1160
1162
1161
1148
1118
1062
979
871
755
658
593
571
570
560
512
422
306
198
114
61
35
24
21
20
20
20
18
15
12
9
5
3
1
1
2
4
8
11
14
18
20
22
23
23
23
29
44
76
129
206
296
379
438
462
464
470
506
577
670
760
831
874
894
901
901
899
896
894
892
891
890
891
892
893
893
888
873
841
788
711
621
537
478
454
453
447
411
340
246
156
86
43
22
14
13
13
13
12
10
8
6
4
2
1
1
3
6
13
21
31
39
43
44
44
48
57
68
78
86
90
91
92
91
91
92
92
92
92
92
92
93
93
93
93
92
90
87
80
72
62
54
50
49
49
45
36
25
15
7
3
2
2
2
1
1
1
1
1
1
1
2
2
2
3
3
3
3
3
5
11
23
42
66
90
108
118
119
119
124
138
157
178
195
206
212
214
215
215
214
214
213
213
213
213
213
213
213
213
211
206
194
174
150
126
108
99
97
97
92
79
59
39
21
10
5
2
1
1
1
1
1
1
1
1
2
3
4
4
5
5
5
5
6
9
18
33
55
85
115
138
147
148
150
160
183
209
233
250
258
261
262
262
262
261
260
260
259
259
259
259
260
260
259
256
247
232
210
180
150
127
118
117
115
104
82
56
31
15
7
3
2
2
2
2
2
2
1
1
1
2
2
2
2
2
2
3
5
9
19
34
53
74
90
99
100
100
106
121
140
159
174
182
186
188
188
188
188
187
187
187
187
187
187
187
187
187
185
180
170
156
136
115
99
91
89
89
83
69
49
30
15
7
3
1
1
1
1
1
1
1
1
2
3
5
7
8
9
9
9
9
10
14
25
48
84
132
183
226
250
257
257
268
300
348
401
444
472
486
490
491
490
489
488
487
486
486
487
488
488
489
488
484
473
451
414
366
316
272
248
242
242
231
199
151
97
54
26
13
8
7
7
7
6
6
5
4
3
1
1
1
1
1
2
3
4
5
6
7
7
7
7
8
10
15
23
38
59
85
115
141
158
164
164
169
186
218
256
291
315
328
333
334
334
333
333
332
331
331
332
333
334
333
331
327
318
304
283
257
227
200
183
177
177
172
155
123
84
50
26
12
7
5
5
5
5
4
4
3
1
1
1
2
3
5
7
8
9
9
9
9
10
13
20
36
62
99
139
178
206
217
218
220
237
269
309
346
372
386
394
396
396
395
393
392
391
391
391
391
391
392
391
389
381
365
339
303
262
223
195
184
184
181
165
133
92
56
29
15
7
5
4
4
4
4
3
2
1
1
1
1
3
4
5
7
9
11
12
14
14
14
17
25
43
67
97
129
159
180
192
196
196
199
214
242
276
310
336
351
357
358
357
356
354
353
351
351
350
350
351
351
349
340
323
299
269
237
207
186
174
170
170
166
152
124
89
55
29
14
8
6
5
5
5
5
5
4
3
1
1
1
2
4
6
8
10
12
14
15
16
16
16
19
28
51
89
140
196
244
278
295
297
298
306
329
367
415
463
504
532
546
551
551
549
547
546
545
545
546
548
549
550
549
539
517
479
428
372
324
290
274
271
271
262
240
201
153
105
64
36
21
15
13
13
13
12
11
9
6
4
3
1
1
1
1
1
2
2
2
2
2
2
2
2
2
2
2
2
2
2
2
2
2
2
3
3
3
5
6
8
10
13
15
18
21
22
22
22
25
39
67
112
177
253
327
386
422
435
435
440
466
519
593
670
734
779
805
816
817
816
814
812
812
812
812
814
816
818
815
802
775
729
665
588
514
456
419
406
405
401
374
321
247
171
106
61
34
22
19
19
19
18
16
12
9
6
3
1
1
1
2
5
9
13
18
24
30
39
49
58
67
71
72
73
78
99
147
234
358
512
671
803
886
918
920
928
974
1064
1188
1316
1427
1507
1554
1575
1581
1579
1572
1564
1556
1550
1548
1548
1553
1557
1554
1536
1489
1403
1280
1126
967
835
751
719
718
709
664
573
449
321
209
126
75
49
38
35
35
35
33
29
23
18
12
8
5
3
1
1
1
1
1
1
1
1
1
1
1
1
1
1
1
1
1
1
1
1
1
1
1
1
1
1
1
1
2
2
2
1
1
1
1
1
1
1
1
1
1
2
2
3
3
3
3
3
4
4
4
4
4
4
4
4
4
4
4
4
4
4
5
6
8
11
15
21
28
37
45
53
59
63
63
64
72
100
156
245
369
510
651
771
851
887
892
896
934
1024
1156
1306
1446
1557
1632
1674
1692
1694
1687
1680
1676
1677
1684
1693
1703
1710
1705
1679
1623
1533
1409
1268
1127
1008
928
892
887
883
845
755
623
473
332
220
143
98
76
69
69
68
63
54
41
27
16
9
5
3
3
3
4
4
5
5
5
4
4
4
4
4
4
4
4
4
4
4
3
3
2
2
2
2
2
2
2
2
2
2
2
2
2
1
1
1
1
1
1
1
1
1
1
1
1
1
1
2
2
2
2
2
4
5
7
8
9
10
10
10
10
10
10
10
10
10
10
11
11
12
13
13
13
14
15
16
17
19
21
23
27
31
38
47
58
70
78
80
80
89
123
197
317
480
673
875
1057
1185
1243
1251
1255
1302
1422
1604
1811
1992
2127
2212
2255
2272
2274
2270
2263
2255
2248
2244
2246
2254
2262
2258
2228
2157
2038
1875
1682
1480
1297
1169
1110
1101
1097
1048
928
746
538
355
219
132
87
67
62
61
61
58
52
42
31
22
13
8
3
1
1
1
1
1
2
2
2
2
2
2
2
3
3
3
3
3
3
3
3
3
3
4
5
6
7
7
7
7
7
6
6
6
6
5
5
5
5
6
7
9
11
12
12
12
12
12
12
12
13
13
12
11
11
11
13
16
19
22
24
25
26
27
30
34
41
52
65
78
86
88
87
87
101
147
240
394
608
866
1118
1321
1449
1499
1504
1512
1580
1731
1952
2196
2418
2594
2709
2773
2802
2810
2805
2794
2785
2783
2793
2811
2829
2838
2829
2786
2693
2540
2327
2069
1817
1614
1486
1435
1430
1421
1350
1196
972
726
501
324
208
144
112
101
99
99
95
83
64
42
24
14
8
5
4
4
3
3
4
4
4
4
4
4
4
4
5
5
6
7
8
8
8
7
7
8
8
8
8
8
8
9
10
10
10
10
10
10
10
10
10
10
10
11
11
11
11
11
11
10
9
9
8
8
7
7
7
7
8
10
11
13
18
22
26
27
27
27
28
31
35
37
38
39
39
38
38
37
38
39
42
47
55
66
79
95
110
121
125
125
123
126
149
209
317
484
708
966
1206
1385
1485
1513
1511
1544
1664
1877
2147
2411
2629
2782
2869
2908
2917
2911
2898
2883
2875
2880
2897
2920
2942
2952
2933
2872
2762
2594
2370
2112
1872
1689
1585
1555
1555
1522
1403
1190
921
658
439
285
195
152
134
130
130
129
122
106
84
60
37
22
13
9
8
8
8
8
9
9
9
9
9
8
9
10
11
12
13
14
14
14
16
18
19
19
19
21
26
30
32
32
34
41
52
60
64
63
63
63
63
63
63
65
67
67
66
64
63
63
65
67
67
67
67
68
68
67
63
58
56
56
54
47
37
29
26
25
26
28
31
34
35
33
30
28
27
27
27
28
29
34
41
52
65
79
93
105
117
124
128
128
129
136
167
249
408
648
962
1299
1597
1802
1901
1923
1924
1964
2088
2291
2543
2800
3021
3187
3290
3342
3360
3358
3346
3333
3323
3325
3334
3348
3361
3365
3342
3265
3110
2872
2560
2221
1921
1713
1612
1589
1589
1548
1424
1222
971
714
493
323
213
150
119
106
103
103
101
94
82
68
56
46
40
34
30
27
26
25
24
24
24
24
24
24
24
24
23
21
18
16
13
12
11
11
12
12
11
10
9
8
7
5
4
3
3
3
3
3
4
4
4
4
3
3
3
3
3
3
3
3
3
3
3
3
3
2
2
3
3
3
3
3
4
4
5
6
7
7
6
6
7
8
9
10
12
13
14
16
18
22
29
41
59
83
111
137
155
163
163
164
175
216
305
458
682
969
1288
1583
1802
1910
1935
1935
1977
2108
2325
2594
2863
3096
3267
3371
3420
3429
3416
3392
3366
3346
3335
3337
3345
3353
3347
3312
3227
3079
2860
2575
2258
1965
1747
1639
1613
1613
1570
1439
1221
952
682
447
274
166
110
89
84
84
82
77
70
62
53
45
39
33
28
23
19
16
14
13
12
13
13
13
12
11
10
10
10
9
9
9
9
10
10
10
10
9
9
8
7
7
7
7
6
6
5
4
4
3
3
4
4
4
5
6
6
6
6
6
6
6
6
7
7
7
7
8
9
10
10
10
10
10
10
10
10
10
10
9
10
10
12
13
14
14
14
14
15
19
24
32
43
55
65
76
84
89
92
92
91
94
111
165
277
469
745
1059
1360
1595
1727
1764
1762
1788
1891
2078
2319
2565
2782
2942
3049
3108
3131
3133
3124
3114
3108
3109
3115
3126
3138
3145
3134
3084
2975
2784
2509
2196
1896
1661
1529
1491
1490
1462
1358
1171
930
684
465
302
190
123
88
75
72
73
70
63
52
40
28
19
13
9
6
5
4
4
5
6
8
10
10
11
12
12
11
11
11
12
14
16
16
16
17
18
19
19
19
19
19
19
19
19
19
19
19
18
17
15
13
11
11
10
10
9
11
13
17
19
18
17
16
18
20
21
21
21
22
23
24
25
25
25
25
25
25
25
25
25
25
25
25
25
27
30
31
31
29
28
29
32
39
48
62
77
95
112
123
127
127
129
146
196
297
460
690
972
1273
1543
1730
1821
1835
1839
1898
2050
2288
2567
2841
3069
3239
3348
3400
3412
3399
3382
3369
3365
3372
3387
3404
3416
3409
3365
3268
3106
2877
2595
2294
2024
1837
1747
1732
1728
1666
1512
1272
989
713
484
311
200
144
123
122
122
115
102
83
64
47
32
22
16
12
12
12
13
13
13
13
13
13
14
15
16
17
18
18
18
17
16
14
12
11
11
11
11
11
10
11
11
12
12
11
10
10
9
10
10
11
11
11
10
9
8
7
7
7
7
7
7
7
8
8
8
9
10
11
12
12
11
10
10
10
10
10
10
10
11
14
16
19
20
21
22
23
23
25
28
33
42
55
70
88
101
110
111
110
123
170
278
466
736
1062
1402
1697
1899
1988
2001
2003
2059
2206
2439
2714
2977
3196
3358
3465
3527
3557
3565
3556
3539
3525
3520
3527
3544
3559
3558
3517
3414
3229
2961
2635
2295
2002
1800
1710
1696
1693
1634
1484
1249
974
712
495
334
228
165
129
113
109
110
106
97
81
62
46
36
30
26
23
22
21
21
20
20
21
21
21
22
23
24
24
23
21
19
17
17
18
18
19
19
19
19
19
18
18
16
15
15
14
14
14
15
14
14
13
12
11
10
10
8
7
6
6
6
6
5
4
4
5
6
8
10
11
12
11
11
11
11
11
11
11
11
10
10
10
11
12
14
17
19
21
23
24
26
29
36
46
62
81
100
114
121
121
122
144
215
364
611
938
1298
1645
1921
2089
2150
2154
2172
2276
2498
2815
3166
3484
3723
3876
3955
3985
3991
3982
3966
3947
3933
3929
3937
3953
3967
3958
3896
3752
3509
3185
2825
2479
2203
2035
1973
1970
1952
1848
1624
1304
950
630
389
235
157
124
114
112
113
110
104
92
76
58
42
29
22
18
17
17
16
16
16
16
16
16
16
17
19
20
21
21
21
21
20
19
17
16
16
16
16
16
16
17
20
23
25
25
24
24
23
24
24
24
24
24
23
21
20
18
17
17
19
21
23
25
26
27
27
27
27
28
29
28
26
23
21
20
19
19
19
19
19
20
23
25
26
28
29
30
31
33
36
40
47
60
78
100
122
140
150
153
152
157
184
254
390
602
889
1222
1555
1831
2008
2077
2082
2094
2194
2422
2767
3169
3549
3835
4014
4094
4111
4099
4080
4062
4048
4040
4037
4039
4044
4044
4023
3959
3828
3619
3334
3002
2670
2394
2217
2147
2141
2127
2026
1797
1451
1050
670
383
201
114
88
86
85
80
72
62
55
49
44
39
32
26
20
16
12
11
12
14
17
20
21
22
23
23
22
20
18
16
16
16
17
17
17
17
17
17
17
17
17
18
18
19
19
19
19
18
17
14
11
7
5
4
3
3
3
3
3
3
3
3
3
2
2
3
4
7
10
14
18
22
25
26
27
27
27
28
31
35
40
45
48
49
50
50
50
50
51
53
58
65
75
85
96
107
118
128
138
145
147
143
143
165
238
383
618
924
1268
1604
1876
2053
2130
2139
2144
2212
2375
2627
2921
3213
3461
3641
3755
3815
3834
3830
3818
3806
3799
3799
3806
3817
3826
3814
3751
3614
3386
3083
2737
2398
2122
1939
1859
1849
1844
1777
1614
1363
1069
776
525
338
215
144
114
107
107
105
99
88
76
64
52
41
33
29
28
27
27
27
27
27
27
27
27
27
26
25
24
23
22
21
21
22
24
24
24
24
25
26
27
29
29
29
26
22
17
14
13
13
14
14
14
13
13
13
13
13
13
14
14
13
12
11
11
11
13
15
17
18
19
19
20
21
22
22
22
23
26
29
33
35
35
35
35
35
35
35
36
39
45
52
62
74
88
103
117
129
138
140
138
141
169
251
413
654
961
1293
1597
1828
1960
2009
2012
2024
2097
2265
2523
2843
3175
3479
3714
3870
3947
3965
3955
3939
3930
3933
3947
3971
3999
4016
4004
3934
3778
3541
3236
2903
2596
2361
2224
2174
2171
2159
2085
1917
1659
1339
1006
699
459
297
212
183
179
178
171
153
131
106
82
62
45
32
28
29
34
38
42
44
45
46
48
50
53
55
55
55
55
56
56
54
53
52
52
52
52
52
51
49
46
44
44
44
41
37
33
32
32
30
29
29
28
27
24
23
22
23
22
22
23
25
27
29
31
33
34
34
33
32
32
33
33
33
33
34
33
29
27
27
29
32
34
36
38
41
44
48
53
61
73
88
107
124
135
141
142
142
152
183
247
354
512
710
917
1112
1279
1394
1447
1456
1457
1492
1592
1757
1962
2168
2343
2471
2552
2592
2598
2585
2564
2546
2536
2534
2539
2545
2542
2520
2469
2377
2233
2045
1841
1645
1477
1363
1314
1308
1309
1272
1167
999
791
583
406
273
187
139
120
115
115
114
111
105
99
92
85
75
62
47
36
32
33
37
39
37
33
30
28
27
27
27
29
34
40
47
51
52
52
52
52
53
53
54
55
56
58
61
63
64
61
56
51
46
44
44
45
45
44
44
43
43
42
37
31
24
20
19
19
19
20
21
22
22
22
20
18
16
14
12
12
14
15
16
16
15
15
15
16
17
19
20
22
25
28
31
35
38
41
43
45
47
53
60
69
77
80
80
83
105
163
270
427
613
811
989
1121
1190
1207
1206
1223
1289
1411
1567
1723
1856
1953
2017
2053
2068
2071
2069
2062
2054
2047
2044
2048
2056
2060
2043
1987
1881
1724
1537
1340
1163
1031
960
941
942
922
855
731
572
414
279
179
113
75
58
52
51
52
52
51
46
39
32
25
21
18
17
16
16
16
16
17
17
17
17
17
17
17
17
17
15
14
14
15
17
19
20
20
20
19
19
19
18
17
17
16
15
14
14
15
16
19
22
25
28
29
29
29
29
29
29
29
29
30
32
34
35
35
35
35
35
35
35
35
36
36
37
37
37
37
39
40
41
41
41
42
42
42
42
42
42
42
42
43
45
48
55
63
68
70
70
75
95
140
216
324
448
572
676
745
774
777
772
779
812
878
971
1080
1188
1282
1352
1397
1417
1420
1415
1407
1403
1401
1402
1406
1410
1408
1391
1348
1274
1168
1045
921
816
746
714
707
707
696
660
592
499
391
282
189
118
73
53
47
47
47
42
36
30
25
22
20
17
14
12
10
9
9
9
9
9
8
9
11
14
17
19
20
20
20
20
20
20
19
19
18
18
18
17
16
16
15
15
15
15
15
15
15
15
15
15
15
15
13
11
7
5
4
4
4
4
3
3
3
3
3
3
4
4
5
6
7
7
7
7
7
7
7
7
7
7
7
8
9
10
10
10
10
11
12
16
23
32
42
48
51
51
53
63
88
130
185
246
304
350
382
399
406
406
407
417
439
476
526
578
626
662
685
696
699
695
689
680
671
666
665
667
666
657
633
591
537
478
420
376
344
326
320
321
321
313
291
252
201
148
100
64
41
29
25
25
25
24
23
21
20
18
17
15
13
12
10
7
6
5
5
5
5
5
4
4
4
5
5
5
5
5
5
5
5
5
6
6
6
6
6
6
6
6
6
6
6
6
6
6
6
6
5
5
4
4
3
2
2
2
2
2
2
2
2
1
1
1
2
3
3
4
5
6
7
7
7
7
7
8
8
10
10
11
11
11
11
11
12
13
13
14
15
16
18
21
24
27
29
29
28
28
34
49
75
111
149
188
222
247
264
271
273
272
276
288
310
340
373
405
430
448
461
468
470
469
466
463
461
462
465
466
461
445
419
383
344
306
272
246
228
220
219
219
216
206
184
155
121
89
63
44
32
24
21
21
21
21
20
18
15
13
12
11
11
11
11
11
11
11
11
11
11
12
13
14
15
15
14
14
14
14
13
12
11
10
10
10
10
10
10
10
10
10
11
11
11
11
11
11
11
11
10
8
6
4
2
1
1
1
1
1
1
2
2
3
4
5
5
5
5
5
5
5
5
5
5
4
4
4
4
4
5
5
5
5
6
7
9
11
12
13
14
14
14
14
13
13
12
12
14
19
30
47
72
100
126
148
166
177
181
182
182
185
194
213
240
273
306
334
355
366
370
371
370
370
371
373
376
378
379
375
365
349
326
299
273
251
234
223
218
217
218
215
206
188
160
126
92
62
40
28
23
22
22
22
20
17
15
13
11
9
8
7
6
5
4
4
4
4
4
3
3
3
3
3
3
3
3
3
3
3
3
4
4
4
4
4
4
4
4
4
4
4
4
4
4
4
4
4
4
4
4
4
4
3
3
2
2
2
2
2
2
2
2
2
2
2
3
3
3
3
3
3
3
3
3
3
3
3
3
3
3
3
3
3
4
4
4
4
4
5
5
6
7
7
8
8
8
8
8
10
16
30
50
78
108
136
157
169
173
174
174
176
182
194
213
237
263
291
317
337
350
355
355
354
354
355
357
359
361
361
356
344
324
297
267
239
218
206
201
200
200
198
192
180
161
137
111
83
57
36
23
17
16
16
16
14
12
10
8
6
5
4
4
4
4
4
4
4
4
4
4
4
5
5
6
6
6
6
6
6
6
6
7
7
7
7
7
6
6
6
5
5
4
4
4
4
4
6
8
10
12
12
12
11
11
11
11
12
12
12
12
12
12
12
12
12
12
13
13
13
13
13
13
13
13
13
13
12
10
9
7
6
7
7
7
7
7
7
8
9
9
11
12
13
13
13
13
15
21
35
55
83
113
143
168
185
195
197
197
197
202
214
231
251
274
293
307
317
322
325
326
325
324
324
323
324
324
323
317
304
284
256
227
197
174
158
149
147
147
146
140
128
111
92
70
52
38
28
22
18
16
15
15
15
15
14
14
13
13
12
12
12
11
10
9
8
8
7
8
9
12
14
14
14
13
12
11
11
11
11
11
11
11
11
11
11
11
11
12
13
13
14
15
15
15
15
15
15
14
13
11
10
8
7
8
9
11
14
17
19
20
20
23
33
56
92
140
193
242
285
314
329
334
334
337
350
376
415
460
508
548
580
600
612
616
616
614
611
610
611
614
618
618
610
590
556
510
457
407
364
334
318
315
317
316
306
281
244
198
150
109
77
56
44
40
39
39
38
36
33
30
27
25
23
21
19
17
16
16
16
16
16
15
13
11
8
6
6
5
5
5
5
5
5
5
5
5
5
5
5
5
4
4
4
5
6
6
6
6
6
6
6
5
5
5
5
5
5
5
6
6
6
7
7
7
7
7
7
7
7
7
7
6
5
4
3
3
3
3
3
4
4
4
5
5
4
5
5
5
4
4
3
3
3
3
3
3
3
3
3
3
3
4
4
5
5
7
8
9
11
14
18
24
31
37
39
39
42
56
91
144
208
276
340
394
432
455
463
464
465
473
496
534
581
634
681
717
738
750
754
753
749
743
736
731
732
736
737
727
695
643
580
513
448
395
357
335
326
326
325
318
297
261
214
162
114
78
55
42
35
33
32
32
32
31
28
24
20
17
14
13
12
12
12
12
12
12
12
11
11
10
8
6
4
3
3
4
3
3
3
3
3
3
3
3
3
3
2
2
1
1
1
1
1
1
1
1
1
1
1
1
1
1
1
1
1
1
1
1
1
2
2
2
3
3
4
4
4
4
4
4
4
4
4
4
4
4
4
5
5
6
7
8
10
12
13
14
15
17
18
20
21
23
25
26
27
27
27
29
39
67
121
197
288
378
454
508
533
539
539
547
575
635
720
820
908
974
1016
1037
1044
1044
1043
1041
1041
1043
1048
1053
1057
1059
1050
1024
971
895
805
715
638
585
559
552
552
544
514
452
366
265
175
107
64
42
33
33
33
34
31
28
22
18
14
12
11
10
10
11
12
14
14
15
15
15
15
15
15
15
16
16
16
16
16
17
17
17
17
17
17
17
17
15
14
13
12
12
11
10
8
6
6
5
5
6
6
6
6
5
5
4
4
4
4
4
3
2
2
3
5
8
12
15
18
19
19
19
19
19
20
21
21
22
23
24
24
25
26
27
27
28
28
28
28
29
30
31
32
33
33
32
29
26
24
27
42
70
110
158
208
248
278
293
297
296
297
303
319
342
372
404
435
463
487
503
510
512
510
509
510
512
516
520
522
519
505
477
437
389
338
297
267
251
247
247
245
238
222
197
168
136
105
78
54
38
30
27
27
26
24
19
15
11
8
7
6
5
5
5
5
5
5
5
5
5
5
5
5
5
5
4
4
3
3
2
2
3
3
2
2
2
2
2
2
2
3
3
3
3
3
3
3
3
3
3
3
3
3
3
3
3
3
3
3
3
3
3
3
3
3
3
3
3
3
3
2
2
2
2
2
2
2
2
2
2
2
3
3
5
6
8
10
12
16
20
24
27
31
35
38
39
39
40
49
71
112
171
238
302
356
394
413
419
420
421
428
445
475
512
554
598
636
664
679
685
685
682
678
674
673
675
680
685
682
664
626
569
502
438
385
346
327
320
320
319
311
294
264
227
186
142
102
73
54
45
41
40
40
40
38
35
30
25
20
16
12
11
13
15
18
19
20
20
20
20
20
20
20
19
17
15
14
14
13
14
14
14
14
13
13
13
13
13
12
12
12
11
9
7
5
5
6
6
7
7
7
7
7
7
7
7
7
7
7
7
7
8
9
10
12
14
15
15
15
15
16
16
16
15
15
14
13
12
11
11
10
11
11
11
12
14
16
20
27
35
44
55
64
72
76
75
75
86
118
179
272
392
519
635
729
785
806
808
810
829
875
945
1032
1118
1194
1254
1294
1316
1322
1317
1307
1297
1287
1279
1277
1280
1282
1275
1246
1187
1095
976
849
733
639
583
563
560
558
539
494
423
337
250
174
112
69
43
31
28
27
27
26
24
21
17
14
10
7
4
3
2
2
2
2
2
2
2
3
3
3
3
3
3
3
3
3
3
3
3
3
3
3
3
3
3
3
3
3
3
4
5
7
9
10
10
9
9
9
9
9
9
8
8
8
9
9
10
10
10
10
10
10
11
11
12
13
13
13
13
12
11
9
7
6
6
7
7
7
7
7
7
8
9
10
12
13
16
18
22
25
28
31
31
30
30
35
54
94
159
242
332
419
486
529
548
551
551
562
590
638
702
775
845
905
951
981
996
1000
998
994
992
993
996
1002
1007
1007
993
956
894
812
723
637
569
526
507
504
503
493
465
417
353
279
209
148
100
68
50
44
42
42
41
38
34
29
24
18
15
13
13
14
14
14
14
14
14
14
14
14
14
14
14
13
13
13
13
13
13
13
14
15
16
16
15
15
15
15
13
11
8
6
5
5
5
5
5
5
6
6
6
7
7
7
7
7
7
8
9
9
9
9
9
8
9
9
11
12
13
13
13
13
13
15
17
19
22
25
26
26
26
25
25
25
25
26
28
29
33
37
44
54
67
79
84
83
88
123
216
370
573
791
989
1133
1217
1251
1252
1251
1276
1345
1465
1619
1787
1946
2074
2160
2209
2227
2228
2223
2216
2210
2203
2199
2202
2210
2209
2176
2085
1933
1731
1514
1317
1173
1087
1051
1047
1045
1019
949
829
675
507
349
222
136
86
66
61
62
61
57
51
42
34
26
21
19
17
18
18
18
18
18
17
16
16
16
16
16
16
16
15
15
16
17
17
18
18
17
17
17
18
20
21
22
22
21
20
18
17
16
16
16
16
16
17
17
17
18
18
19
19
19
18
17
16
16
18
21
24
25
26
27
28
31
33
36
36
36
36
38
43
49
54
58
59
60
59
59
59
59
61
67
78
90
99
105
107
106
104
102
101
104
121
166
249
379
546
728
896
1013
1067
1074
1069
1085
1148
1256
1396
1541
1678
1785
1859
1898
1908
1903
1895
1887
1884
1884
1888
1893
1901
1906
1900
1865
1789
1663
1496
1313
1147
1030
974
963
963
942
877
769
628
483
347
240
164
118
98
90
89
89
88
86
82
77
69
59
46
33
23
17
16
16
15
11
8
7
7
7
8
8
8
7
7
6
6
6
6
7
8
8
8
8
8
7
7
6
6
7
10
14
18
21
22
22
22
22
21
21
20
20
20
20
21
21
22
22
22
22
22
23
24
25
25
25
25
25
25
23
20
16
12
10
9
9
9
11
12
13
14
15
16
17
19
20
23
28
35
42
50
56
60
61
61
67
91
150
250
396
568
746
900
1005
1055
1066
1065
1083
1144
1251
1399
1566
1724
1855
1947
1998
2014
2011
2004
2000
2000
2003
2008
2015
2022
2024
2006
1954
1858
1716
1545
1367
1213
1110
1063
1056
1060
1044
983
875
725
558
399
267
174
120
101
99
99
96
88
78
67
59
52
46
42
37
34
32
31
32
32
30
27
23
19
17
15
15
15
15
15
15
16
17
18
19
19
18
17
18
20
22
22
21
19
18
16
15
14
13
13
13
13
13
13
14
15
17
19
20
19
19
19
20
20
21
21
21
21
20
18
17
17
17
17
17
17
17
18
18
19
22
26
31
35
37
37
35
33
33
33
34
35
39
46
56
68
81
91
94
94
99
130
206
338
516
719
927
1109
1241
1307
1322
1318
1337
1416
1567
1764
1971
2149
2273
2343
2375
2382
2378
2369
2359
2346
2334
2326
2327
2334
2337
2315
2247
2120
1944
1741
1533
1351
1219
1152
1134
1135
1111
1028
874
676
469
293
170
100
68
59
58
58
59
58
57
55
54
50
42
31
23
18
18
19
20
20
20
20
21
22
24
25
27
27
26
25
24
24
24
24
24
23
22
22
23
22
20
17
16
16
17
17
16
15
15
15
15
16
16
15
13
10
9
9
9
9
9
9
9
9
10
11
12
14
16
17
18
18
18
18
19
20
20
19
19
20
20
20
19
19
20
23
27
31
35
39
43
49
55
62
70
78
85
92
96
97
97
100
119
172
271
428
630
854
1068
1244
1359
1409
1417
1420
1459
1561
1725
1929
2128
2296
2420
2497
2539
2554
2553
2545
2536
2529
2526
2530
2539
2545
2535
2491
2396
2242
2043
1820
1608
1430
1314
1264
1256
1253
1212
1107
940
732
530
357
230
146
98
76
69
67
67
66
62
56
47
38
28
20
13
8
6
5
6
7
8
8
8
8
8
8
8
8
7
8
9
10
11
11
11
11
11
11
11
11
11
11
11
11
11
12
14
15
16
16
15
15
14
15
15
15
16
18
18
17
16
15
16
18
20
23
26
28
30
32
33
34
34
34
34
33
32
30
28
27
27
27
28
28
30
32
35
38
43
48
51
54
56
60
63
68
73
77
78
76
78
97
150
254
413
620
849
1062
1229
1333
1377
1380
1386
1428
1524
1662
1821
1984
2129
2244
2328
2380
2406
2413
2408
2401
2396
2397
2404
2415
2421
2410
2361
2260
2103
1897
1668
1455
1287
1183
1140
1136
1131
1088
992
852
689
521
371
251
164
108
79
67
65
65
62
55
45
34
25
17
12
9
7
6
6
7
7
8
9
10
10
9
8
8
8
8
8
8
8
8
8
8
8
8
8
8
8
8
8
8
8
9
10
10
10
10
9
9
9
8
8
7
7
7
7
7
6
7
7
7
8
8
9
9
9
9
9
9
9
9
9
10
10
9
8
7
7
7
8
9
10
11
13
16
19
24
30
39
48
59
74
91
111
130
142
145
146
167
240
390
613
894
1201
1482
1706
1852
1919
1930
1931
1975
2102
2314
2577
2832
3037
3173
3247
3279
3288
3286
3276
3261
3240
3221
3213
3220
3234
3228
3168
3029
2812
2535
2230
1950
1727
1582
1515
1503
1501
1455
1327
1115
851
594
388
248
169
129
110
100
95
93
93
93
89
80
66
51
38
27
20
15
12
11
10
9
9
9
10
12
16
21
27
32
36
39
41
40
41
43
49
56
63
66
67
66
65
65
65
66
67
70
73
74
74
74
74
75
74
72
67
61
55
49
43
39
37
37
37
34
29
21
15
12
13
16
19
22
23
22
21
18
15
14
14
14
14
13
14
16
21
30
39
47
52
54
56
59
64
71
82
95
108
121
130
132
130
130
153
233
401
665
998
1345
1646
1864
1988
2034
2036
2045
2107
2257
2494
2787
3071
3298
3450
3534
3572
3582
3579
3568
3554
3542
3537
3544
3564
3587
3583
3518
3357
3096
2763
2416
2115
1897
1773
1727
1725
1715
1648
1489
1243
942
654
425
271
185
143
127
120
119
119
118
113
100
80
56
35
21
14
12
14
16
17
18
18
17
17
16
16
17
18
19
19
18
19
19
18
17
16
16
17
17
17
16
16
16
16
16
16
15
13
12
13
15
17
18
18
18
18
17
16
15
16
16
16
15
15
16
16
16
15
15
15
15
15
14
14
14
14
14
13
13
12
10
9
9
10
11
12
13
14
16
19
24
32
45
62
79
93
102
106
106
108
123
166
259
423
658
946
1247
1499
1672
1751
1765
1766
1806
1916
2098
2326
2566
2778
2944
3057
3119
3140
3136
3119
3102
3090
3088
3094
3104
3112
3106
3069
2980
2820
2587
2300
2000
1748
1575
1495
1480
1478
1438
1325
1143
913
673
460
292
177
110
80
72
71
70
67
60
51
40
31
22
16
12
11
11
13
14
16
16
17
17
17
17
17
17
17
18
19
20
20
19
19
19
19
19
19
19
19
20
23
28
31
31
30
28
25
23
21
21
21
21
23
25
27
29
30
29
28
28
29
31
33
35
37
37
37
37
37
36
32
29
26
25
26
26
26
26
27
29
31
31
30
28
26
24
24
25
27
31
34
38
41
46
52
58
66
71
74
74
75
87
127
216
369
598
893
1213
1494
1685
1776
1793
1794
1847
1992
2222
2503
2790
3034
3212
3324
3380
3397
3396
3389
3382
3378
3377
3378
3381
3382
3372
3333
3245
3093
2866
2574
2256
1976
1786
1696
1683
1683
1631
1487
1257
975
688
443
261
145
84
60
54
55
56
53
50
46
43
41
40
40
40
39
37
36
34
33
30
27
23
20
19
19
19
18
17
16
15
15
15
15
15
14
13
11
11
10
10
10
9
8
6
5
4
3
3
3
3
3
3
3
4
4
4
4
4
4
4
4
3
3
3
4
5
5
6
6
6
6
7
7
7
6
6
6
6
5
5
5
5
6
7
9
12
15
18
21
25
28
31
35
41
47
52
58
63
66
66
68
82
130
231
399
623
881
1128
1320
1436
1479
1481
1491
1554
1684
1869
2074
2264
2410
2511
2572
2601
2610
2608
2602
2596
2593
2595
2603
2613
2621
2614
2571
2473
2307
2083
1825
1579
1386
1270
1227
1224
1214
1149
1017
830
622
430
281
177
113
81
68
65
65
64
60
52
42
31
22
14
10
6
5
5
4
4
4
4
4
4
4
5
5
5
5
5
4
4
3
3
3
3
3
3
3
3
2
2
2
2
2
2
2
2
2
2
2
2
2
2
2
2
1
1
1
1
1
1
1
1
1
1
1
1
1
3
4
5
6
7
8
8
9
9
9
9
9
10
12
14
16
17
18
19
20
21
24
26
31
39
48
60
75
91
105
116
120
119
121
144
217
362
585
867
1181
1469
1687
1814
1858
1858
1874
1959
2140
2398
2685
2953
3159
3293
3362
3387
3388
3377
3362
3349
3341
3340
3349
3364
3376
3364
3299
3159
2938
2658
2346
2059
1840
1712
1666
1665
1648
1561
1379
1122
833
564
356
219
145
114
103
102
102
99
93
82
67
51
37
25
16
11
8
6
5
4
4
4
4
5
5
5
5
5
5
5
5
5
5
5
4
4
4
4
4
4
4
4
4
4
4
5
5
5
5
5
5
5
5
5
5
5
5
5
4
5
5
6
6
7
7
7
7
7
7
7
7
7
7
7
7
7
6
6
6
6
5
5
5
5
5
5
6
9
11
15
20
28
37
49
63
79
97
111
121
123
124
141
200
324
527
797
1104
1411
1675
1857
1941
1955
1958
2017
2171
2416
2710
2990
3217
3376
3471
3513
3524
3517
3502
3488
3476
3470
3471
3480
3488
3478
3427
3309
3111
2843
2538
2231
1968
1785
1702
1687
1684
1625
1471
1225
930
648
418
255
154
104
83
78
78
76
71
62
52
41
32
25
17
11
7
4
3
3
3
3
3
3
4
4
4
4
4
4
4
4
4
4
5
5
5
5
4
4
4
4
3
3
3
4
4
3
3
3
3
2
2
2
2
1
1
1
1
1
1
1
1
1
2
2
2
3
3
3
3
4
4
4
5
5
4
4
4
4
5
5
6
7
8
8
9
10
12
14
19
26
36
49
65
82
98
112
122
125
124
132
168
261
433
686
999
1339
1646
1870
1990
2024
2023
2052
2163
2371
2646
2939
3196
3391
3514
3574
3594
3589
3575
3557
3543
3534
3533
3539
3550
3552
3524
3436
3268
3018
2706
2367
2060
1836
1716
1682
1682
1652
1540
1332
1056
762
505
308
181
114
84
76
75
75
73
67
59
50
39
30
22
16
12
10
8
7
7
7
7
7
7
7
7
7
7
6
6
5
4
4
4
3
3
3
3
3
3
3
2
2
2
2
2
1
1
1
1
1
1
1
1
1
2
2
2
1
1
1
1
1
1
2
2
3
4
4
4
4
5
5
5
5
5
5
5
5
5
5
6
7
9
12
14
15
16
18
19
21
26
35
48
66
88
110
129
140
145
144
149
179
259
418
670
1003
1378
1745
2033
2211
2278
2281
2295
2389
2600
2900
3232
3538
3783
3949
4045
4087
4094
4080
4057
4036
4021
4018
4025
4038
4048
4030
3960
3808
3559
3229
2856
2489
2201
2024
1956
1951
1935
1838
1625
1324
991
684
437
269
168
118
97
92
92
91
86
78
66
53
38
26
16
10
6
3
2
2
1
1
1
2
2
2
3
3
3
3
3
3
3
3
3
3
3
3
3
3
3
3
3
4
4
4
4
4
4
4
4
4
3
3
3
3
2
2
2
2
2
2
2
2
2
2
2
2
2
3
3
3
3
3
3
3
3
3
3
3
3
4
5
7
10
12
14
16
18
21
24
29
36
46
58
71
84
95
102
104
104
109
137
211
351
570
852
1165
1466
1701
1842
1889
1889
1911
2021
2243
2548
2873
3153
3353
3473
3533
3552
3549
3537
3524
3515
3513
3516
3525
3536
3540
3519
3451
3315
3099
2818
2505
2205
1970
1829
1781
1780
1756
1644
1420
1112
786
504
301
177
113
86
80
80
79
75
67
56
44
33
24
16
11
6
4
2
1
1
1
1
1
1
1
1
1
1
1
1
1
1
1
1
1
1
1
1
1
1
1
1
1
1
2
2
2
2
2
3
3
3
2
2
2
2
2
2
2
2
2
2
2
2
3
3
4
4
5
5
5
5
5
5
5
5
5
5
5
5
6
7
9
10
11
12
13
15
17
22
30
40
54
68
84
97
106
110
110
112
132
197
329
548
842
1189
1536
1824
2011
2087
2094
2103
2185
2381
2681
3034
3373
3647
3837
3944
3990
3997
3986
3971
3959
3955
3959
3970
3985
3994
3983
3926
3799
3584
3291
2946
2600
2312
2124
2048
2039
2029
1946
1749
1448
1094
754
478
286
174
122
105
103
103
99
89
76
60
45
33
24
16
10
7
5
4
4
5
5
6
7
8
9
9
11
11
12
12
12
11
11
11
11
12
12
13
13
13
13
14
14
14
14
14
14
14
13
13
12
11
10
10
9
8
7
6
6
6
6
6
6
6
5
5
4
4
4
4
4
4
4
3
3
3
3
3
4
4
5
5
6
7
9
11
14
16
20
25
33
43
56
71
85
98
107
110
110
115
145
231
399
663
1010
1406
1780
2075
2247
2308
2310
2332
2443
2677
3002
3361
3685
3934
4098
4190
4228
4233
4223
4208
4196
4189
4191
4201
4215
4222
4202
4122
3959
3698
3353
2957
2583
2289
2116
2055
2052
2029
1917
1682
1356
995
669
417
249
151
106
90
86
86
84
78
67
54
40
29
19
12
7
5
3
2
2
2
2
2
2
2
2
2
2
2
2
3
5
5
6
6
6
6
6
6
6
6
7
8
8
9
9
9
9
10
10
10
10
10
10
10
10
10
11
11
12
12
11
11
10
10
11
12
13
15
16
16
17
16
15
15
16
17
18
18
18
18
19
25
34
46
58
67
71
72
72
71
72
75
82
89
96
101
104
104
104
103
108
128
181
285
457
686
943
1183
1355
1442
1461
1456
1483
1576
1741
1951
2160
2340
2472
2555
2599
2616
2617
2611
2603
2597
2595
2596
2600
2605
2607
2594
2551
2457
2294
2072
1818
1582
1412
1326
1306
1306
1269
1166
990
773
561
380
248
165
120
99
92
90
90
90
88
86
82
77
70
63
55
44
35
27
23
19
16
15
14
15
16
17
16
14
12
11
10
10
10
10
10
11
11
11
13
16
19
22
23
23
22
22
23
24
25
25
25
25
26
26
26
26
27
28
28
28
28
29
29
28
28
27
27
28
27
24
20
19
24
34
42
44
43
43
46
50
51
51
51
49
49
52
56
59
60
60
61
62
68
85
115
154
188
207
209
211
241
316
441
618
839
1083
1307
1478
1578
1611
1611
1627
1700
1841
2032
2220
2370
2467
2521
2551
2565
2573
2573
2560
2532
2494
2461
2447
2456
2470
2456
2391
2265
2081
1852
1606
1382
1210
1105
1069
1068
1053
980
840
648
456
302
202
147
121
117
128
144
156
162
164
164
159
149
137
125
117
113
113
114
115
116
116
117
117
117
116
115
114
113
113
113
113
112
108
97
78
55
38
29
27
27
27
24
21
17
13
12
11
10
10
9
9
8
8
8
8
8
8
8
9
10
10
11
11
11
11
11
11
12
12
14
17
20
21
21
21
20
18
17
15
15
14
16
23
34
45
54
57
58
57
56
56
55
59
70
91
119
149
176
196
204
202
201
221
285
417
641
955
1337
1733
2073
2302
2408
2421
2414
2466
2630
2903
3236
3569
3845
4048
4176
4239
4258
4246
4219
4189
4165
4153
4155
4169
4183
4177
4124
4000
3781
3469
3089
2693
2353
2123
2015
1996
1993
1928
1755
1479
1146
813
538
336
208
142
113
104
103
103
99
91
79
64
48
34
22
13
9
6
6
5
5
6
6
6
6
7
7
7
8
8
8
7
6
5
5
4
4
4
4
5
5
5
5
5
6
8
9
11
12
13
13
13
14
14
14
15
15
15
14
14
15
15
16
17
18
19
20
21
22
23
24
24
25
24
23
21
20
19
18
18
18
19
19
20
21
22
24
25
27
29
31
35
42
51
63
77
91
102
108
109
108
117
157
258
441
717
1063
1437
1777
2023
2150
2184
2182
2222
2366
2627
2965
3317
3622
3850
3987
4050
4063
4057
4044
4031
4022
4017
4016
4020
4026
4021
3985
3890
3715
3448
3111
2744
2407
2160
2032
2000
2002
1962
1817
1553
1213
860
553
324
185
119
98
95
95
93
88
83
77
70
65
60
55
50
42
33
23
16
13
13
13
11
9
8
7
7
7
7
7
6
4
4
4
5
5
5
4
4
3
3
3
3
4
5
6
6
6
6
6
6
6
6
6
6
6
6
6
6
6
6
6
6
5
5
6
6
7
7
7
8
8
7
6
6
5
4
4
4
4
5
5
6
7
8
9
9
11
13
17
24
36
52
72
94
115
135
152
161
162
164
188
271
444
726
1108
1549
1982
2336
2560
2653
2662
2673
2773
3007
3360
3770
4158
4463
4672
4793
4845
4853
4839
4816
4796
4786
4786
4798
4817
4831
4819
4743
4575
4296
3917
3479
3047
2695
2471
2378
2368
2356
2255
2020
1667
1256
867
560
347
220
155
131
126
126
123
113
95
74
54
37
25
18
13
10
7
5
4
3
3
2
3
3
4
4
5
6
7
7
7
7
7
7
7
7
8
8
8
8
8
9
9
10
10
11
11
12
12
12
13
14
14
14
14
13
13
12
11
10
11
12
13
14
15
15
15
15
15
14
14
14
13
13
13
12
12
12
11
11
10
9
8
8
8
9
10
12
14
17
22
30
42
58
78
100
125
147
163
172
173
175
199
276
439
708
1083
1539
2003
2406
2682
2806
2825
2835
2946
3228
3667
4178
4663
5049
5301
5434
5482
5484
5466
5444
5422
5408
5407
5419
5442
5464
5461
5400
5246
4981
4609
4153
3689
3286
3011
2887
2868
2858
2746
2464
2023
1511
1024
636
378
238
177
158
155
155
152
144
129
108
84
60
40
24
14
10
8
7
7
7
7
7
8
8
8
8
8
8
7
6
5
5
4
4
4
4
4
4
4
4
3
3
3
3
2
3
4
5
8
11
14
15
15
14
14
14
15
15
15
16
16
16
16
17
17
17
17
17
17
17
18
18
18
18
19
18
17
15
12
9
7
7
8
9
11
13
14
17
20
27
36
49
63
79
94
106
114
117
117
124
160
257
444
738
1120
1538
1919
2189
2322
2347
2350
2425
2638
2983
3392
3794
4112
4328
4448
4497
4507
4496
4481
4468
4462
4464
4473
4487
4503
4510
4483
4393
4209
3917
3536
3118
2737
2467
2334
2308
2305
2228
2015
1668
1258
855
535
316
193
137
118
115
115
112
103
90
72
55
39
25
16
9
5
3
2
2
2
2
2
2
2
2
2
2
2
1
1
1
1
1
1
1
1
1
1
1
1
1
1
1
1
1
1
1
1
1
1
1
1
1
1
1
1
1
1
1
1
1
1
1
1
2
2
3
3
3
3
3
3
3
3
3
3
3
3
3
3
3
3
4
5
6
7
8
10
12
15
19
26
36
49
66
86
108
128
146
156
158
159
170
219
338
557
890
1331
1827
2299
2667
2874
2938
2938
2987
3184
3543
4005
4483
4898
5201
5387
5482
5514
5510
5490
5468
5455
5451
5460
5478
5499
5505
5470
5358
5145
4815
4376
3881
3409
3042
2834
2769
2769
2718
2521
2160
1696
1216
798
491
299
194
149
136
135
134
126
113
94
73
52
35
22
14
8
5
4
3
3
3
3
3
3
3
4
4
4
4
4
4
4
4
4
4
4
4
3
3
4
4
4
4
4
4
4
4
4
4
4
4
5
5
5
5
5
5
4
4
4
4
4
4
4
4
4
5
5
6
6
7
7
7
7
8
8
8
8
8
8
8
8
8
9
10
12
14
16
19
22
27
34
43
57
73
90
107
123
134
140
140
142
164
234
379
619
952
1340
1729
2055
2269
2355
2363
2376
2479
2718
3063
3450
3807
4080
4258
4352
4388
4390
4375
4358
4345
4340
4342
4353
4370
4383
4372
4310
4171
3933
3602
3213
2825
2498
2285
2198
2190
2175
2071
1830
1484
1095
735
459
277
176
130
115
114
114
109
99
84
67
49
34
22
14
8
5
3
3
3
3
3
3
3
3
3
3
2
2
2
2
2
2
2
2
2
2
2
1
1
1
1
1
1
1
1
1
1
1
1
2
2
2
2
3
3
3
4
4
3
3
4
4
4
5
6
7
8
8
9
10
10
10
10
10
10
10
10
10
11
11
11
12
12
13
14
17
20
25
34
44
58
73
89
103
114
120
120
120
135
194
325
555
881
1285
1703
2070
2317
2428
2444
2452
2545
2780
3133
3535
3908
4199
4394
4500
4545
4553
4544
4528
4514
4505
4505
4515
4531
4547
4544
4495
4368
4142
3817
3414
2996
2629
2382
2270
2254
2246
2152
1917
1563
1160
786
491
294
182
128
109
105
105
104
97
85
69
51
35
22
13
7
4
2
1
1
1
1
1
1
1
2
2
2
1
1
1
1
1
1
1
1
1
1
1
1
1
1
1
1
1
1
1
1
1
2
2
2
2
2
1
1
1
1
1
2
1
1
2
2
2
2
3
3
3
4
4
4
4
5
5
5
5
4
4
4
4
4
4
4
5
5
6
7
8
11
17
25
39
56
78
102
126
147
161
167
166
172
208
312
520
853
1302
1823
2335
2746
2992
3075
3077
3118
3300
3660
4139
4643
5082
5399
5596
5692
5722
5717
5696
5672
5652
5641
5639
5650
5666
5675
5651
5556
5354
5025
4578
4059
3547
3136
2890
2807
2805
2764
2581
2221
1741
1237
796
476
274
170
127
114
113
113
109
99
86
70
55
40
28
19
13
9
7
6
5
5
5
5
5
5
5
6
6
5
5
5
4
4
4
3
3
3
3
3
3
2
2
2
2
2
3
4
4
5
5
6
6
6
6
7
7
7
8
8
8
8
8
8
9
9
10
10
11
12
14
15
16
17
18
18
17
17
16
15
15
15
15
15
15
15
16
16
18
20
25
33
43
56
71
89
106
121
132
137
136
137
159
228
377
623
956
1338
1712
2013
2195
2259
2261
2286
2414
2672
3024
3398
3730
3968
4112
4182
4203
4199
4184
4167
4152
4145
4146
4157
4174
4186
4174
4111
3966
3722
3390
3010
2635
2335
2152
2088
2085
2059
1931
1673
1319
945
612
371
222
145
113
104
103
102
99
91
77
61
44
29
19
11
6
4
3
2
2
1
1
1
1
2
2
2
2
2
2
2
2
2
1
1
2
2
2
2
2
2
2
2
2
2
2
2
2
2
2
2
2
2
2
2
2
1
1
1
1
1
1
1
1
1
1
1
1
1
1
1
1
1
1
1
2
2
2
2
2
2
2
2
2
2
3
3
4
6
8
13
21
31
46
65
88
112
134
153
165
169
169
179
224
340
558
891
1317
1789
2230
2563
2741
2789
2789
2847
3050
3403
3850
4305
4684
4955
5116
5192
5211
5200
5178
5155
5140
5136
5143
5160
5181
5189
5156
5049
4836
4505
4081
3609
3169
2835
2658
2610
2610
2551
2348
1994
1546
1090
708
432
265
178
144
136
137
135
128
114
94
74
53
36
23
15
10
7
6
6
6
6
7
7
8
9
10
10
11
12
12
12
12
12
11
11
10
10
10
10
10
10
10
10
11
12
13
14
14
14
14
14
14
13
13
12
11
11
10
9
9
8
8
9
9
9
9
9
9
9
10
10
10
9
8
7
6
6
5
5
4
4
4
5
5
6
6
8
9
11
15
20
29
41
57
77
101
127
150
166
173
173
177
211
304
492
792
1203
1675
2139
2506
2725
2798
2799
2835
3002
3328
3768
4222
4616
4901
5073
5155
5179
5173
5152
5129
5109
5100
5102
5113
5131
5141
5118
5033
4851
4553
4143
3672
3208
2841
2622
2549
2547
2511
2343
2016
1575
1119
723
435
257
167
131
121
120
120
113
100
82
63
45
31
19
10
6
3
1
1
1
2
3
4
4
4
4
4
4
4
4
4
4
4
4
4
4
4
4
5
5
6
6
6
7
7
7
8
8
8
8
8
7
6
6
6
7
7
8
9
10
11
12
12
13
14
14
15
15
14
14
14
13
13
13
14
14
14
15
15
16
17
19
22
27
34
44
57
72
89
106
121
132
136
136
139
165
241
399
651
991
1387
1776
2083
2265
2326
2326
2358
2498
2772
3146
3533
3871
4115
4259
4329
4348
4342
4326
4310
4299
4293
4296
4309
4325
4334
4319
4249
4096
3846
3507
3112
2723
2416
2234
2172
2171
2139
1998
1722
1348
959
620
374
225
150
120
113
113
112
105
94
80
62
46
33
23
16
11
9
8
8
8
8
8
9
9
9
9
9
9
9
8
8
7
6
5
5
5
5
5
5
5
5
5
5
5
4
4
3
3
3
3
2
2
2
2
2
2
1
1
1
1
1
1
1
1
2
2
2
2
1
1
1
1
1
1
1
1
1
1
1
1
1
1
1
2
2
2
3
4
6
8
12
19
29
45
68
94
122
148
169
179
181
182
203
277
445
727
1123
1595
2083
2509
2809
2955
2984
2986
3059
3272
3625
4065
4504
4876
5148
5314
5397
5420
5407
5381
5355
5337
5332
5342
5363
5382
5378
5316
5155
4878
4485
4014
3526
3101
2800
2655
2625
2623
2549
2336
1983
1542
1101
726
450
277
184
145
136
135
134
125
109
88
66
45
29
17
10
5
2
1
1
1
1
1
1
1
1
1
1
1
1
1
1
1
1
1
1
1
1
1
1
1
1
2
2
2
2
3
3
3
3
4
4
4
4
4
4
3
4
4
5
5
6
6
6
7
7
7
8
8
8
8
7
7
7
7
6
6
6
6
6
7
7
9
12
14
18
22
27
34
43
54
69
84
99
111
118
119
119
130
170
264
427
663
951
1258
1534
1737
1841
1865
1865
1913
2057
2301
2600
2892
3129
3293
3388
3434
3447
3442
3428
3412
3400
3395
3400
3413
3429
3431
3400
3313
3154
2921
2634
2328
2053
1850
1745
1721
1720
1672
1527
1281
980
686
445
277
176
123
100
94
93
93
90
83
71
56
40
27
17
11
7
4
2
2
1
1
1
1
2
2
2
1
1
1
1
1
1
2
2
2
3
3
3
3
3
5
6
8
9
9
10
10
11
11
12
14
15
15
15
15
16
17
18
19
19
20
20
21
22
23
23
23
23
23
25
27
27
25
24
24
26
28
30
32
32
30
29
29
30
33
37
43
53
65
82
104
130
157
184
207
224
233
235
236
256
324
472
718
1058
1469
1885
2235
2474
2576
2588
2599
2696
2920
3245
3617
3966
4234
4411
4510
4548
4548
4527
4499
4474
4458
4455
4463
4479
4493
4484
4423
4280
4038
3700
3290
2873
2519
2278
2174
2160
2150
2053
1829
1503
1129
776
500
312
200
144
122
117
117
115
106
91
74
56
40
28
18
12
9
7
7
7
7
8
9
10
11
12
13
12
12
12
12
13
13
13
13
13
13
13
13
13
13
13
13
13
13
13
12
12
12
12
11
10
10
9
7
6
5
5
5
5
5
5
5
5
5
5
5
5
5
5
5
5
6
6
5
5
5
5
5
4
4
5
5
6
7
8
9
11
13
17
23
34
48
67
90
114
138
157
171
174
174
183
230
354
584
924
1349
1798
2194
2482
2631
2667
2667
2728
2920
3252
3669
4086
4423
4654
4784
4838
4848
4833
4811
4789
4774
4773
4780
4797
4815
4820
4782
4667
4444
4109
3687
3241
2847
2559
2409
2373
2373
2311
2119
1787
1369
951
612
377
241
176
152
148
148
145
135
118
97
76
58
44
33
24
18
13
9
6
5
5
5
5
5
5
4
4
3
3
2
2
2
2
2
1
1
1
1
1
2
2
2
2
2
2
2
2
2
2
2
2
2
2
4
7
8
8
8
8
8
9
10
11
11
12
13
14
15
16
17
18
19
19
19
19
19
19
19
20
21
24
26
29
29
29
30
31
33
37
44
54
68
85
102
117
128
134
134
133
145
195
311
513
801
1148
1501
1808
2016
2110
2123
2126
2193
2372
2658
2989
3308
3564
3735
3832
3872
3879
3868
3850
3835
3827
3828
3837
3854
3869
3868
3825
3714
3514
3228
2882
2529
2222
2014
1921
1906
1901
1830
1648
1359
1026
706
448
276
175
127
110
108
108
105
98
85
69
51
35
23
16
12
9
7
7
7
7
7
7
7
7
7
7
7
7
7
7
7
7
6
6
5
5
5
5
5
5
5
5
5
4
4
4
3
3
3
4
5
6
7
7
7
7
7
7
7
7
7
7
7
8
8
8
8
9
9
9
9
10
10
10
10
10
10
10
9
8
6
5
5
5
5
5
5
7
9
12
19
29
44
63
85
109
131
149
159
162
162
173
220
340
559
885
1296
1737
2133
2409
2545
2571
2574
2648
2856
3196
3613
4023
4354
4585
4715
4775
4786
4774
4751
4729
4714
4710
4716
4734
4753
4760
4725
4615
4402
4079
3670
3230
2834
2558
2421
2395
2392
2318
2110
1770
1352
942
609
374
238
167
141
135
135
132
125
112
94
73
54
36
23
14
8
5
3
3
3
4
4
4
4
5
5
6
6
6
5
5
5
5
5
5
5
5
5
5
5
5
5
5
5
5
4
4
4
4
4
4
5
5
6
6
6
5
5
5
5
5
6
6
6
6
6
7
7
7
7
7
7
7
7
7
7
7
7
7
6
5
5
4
3
4
5
8
13
21
30
41
52
65
80
97
114
130
141
146
146
151
179
255
405
646
973
1347
1722
2035
2243
2333
2344
2356
2457
2697
3049
3441
3804
4079
4252
4338
4369
4369
4356
4339
4324
4318
4322
4336
4355
4366
4350
4281
4136
3897
3571
3197
2823
2509
2301
2211
2200
2188
2088
1847
1494
1098
731
450
268
171
128
115
114
113
110
101
86
67
47
31
19
12
9
7
7
7
7
7
7
7
7
7
7
7
8
8
9
9
9
9
9
9
9
9
9
9
9
9
9
9
10
10
10
10
9
8
8
8
8
8
8
8
8
8
8
7
6
4
3
3
3
4
4
5
6
8
9
10
11
12
12
11
10
10
11
12
13
14
15
16
17
18
18
20
21
23
27
32
41
53
70
93
116
138
150
152
151
166
224
351
564
865
1232
1621
1974
2237
2372
2405
2404
2459
2636
2936
3310
3676
3975
4181
4306
4365
4382
4378
4361
4339
4318
4306
4306
4317
4331
4328
4279
4158
3948
3650
3284
2896
2542
2279
2142
2108
2107
2051
1874
1574
1200
835
537
332
206
142
116
109
108
108
105
96
83
69
55
42
33
26
22
20
19
19
19
20
20
21
21
22
22
23
22
21
19
16
14
13
13
13
13
13
13
12
11
10
10
10
9
9
10
11
12
13
14
14
15
14
14
14
13
12
12
11
10
10
11
11
11
11
12
13
14
15
16
17
20
22
24
25
24
23
22
22
22
22
22
23
24
25
27
28
30
33
37
43
54
68
87
110
138
163
183
194
196
195
202
241
343
545
865
1306
1826
2337
2754
2999
3081
3081
3123
3310
3669
4147
4649
5080
5383
5564
5647
5671
5662
5640
5612
5587
5572
5572
5586
5605
5615
5590
5498
5303
4987
4550
4031
3520
3103
2857
2774
2773
2730
2544
2185
1707
1205
772
466
279
185
147
136
135
135
133
128
116
99
80
62
46
35
28
23
20
18
17
16
15
15
15
14
13
11
9
7
6
6
6
6
7
9
10
11
11
11
11
10
11
12
13
14
15
15
15
15
15
15
15
15
16
17
18
19
19
19
19
20
19
19
18
16
15
14
15
17
19
21
21
21
21
21
21
20
20
21
23
26
30
33
36
38
39
41
44
47
52
60
72
88
107
130
152
168
175
174
175
199
284
465
758
1152
1608
2048
2388
2580
2640
2637
2672
2822
3107
3479
3857
4181
4420
4570
4649
4677
4677
4662
4643
4626
4615
4618
4632
4650
4664
4649
4568
4388
4095
3700
3245
2804
2465
2272
2211
2210
2172
2018
1729
1355
974
649
412
261
181
146
134
133
132
128
116
97
75
57
41
30
25
22
20
20
19
19
19
19
19
20
20
21
22
22
22
20
16
13
10
9
8
8
8
8
8
7
7
6
6
8
10
13
17
19
19
19
19
19
18
18
17
16
15
15
15
15
15
15
16
16
17
18
19
20
21
21
21
21
20
19
16
13
9
7
7
7
7
8
9
11
13
16
19
22
26
30
35
41
49
61
74
92
110
126
134
135
136
156
223
373
619
959
1362
1773
2113
2332
2421
2430
2442
2541
2769
3106
3484
3828
4094
4272
4372
4414
4421
4412
4397
4381
4369
4366
4372
4385
4398
4389
4330
4187
3945
3607
3204
2794
2454
2235
2145
2135
2122
2022
1792
1453
1072
725
456
274
169
121
105
103
103
100
93
80
66
52
39
28
20
14
10
8
7
7
7
7
7
7
7
7
7
7
7
7
6
6
5
5
5
5
5
5
5
5
5
5
6
8
9
9
9
9
9
9
8
8
8
8
8
8
7
7
7
8
9
10
10
10
10
12
14
16
18
19
19
18
17
16
16
16
16
16
16
17
19
21
23
24
25
26
28
31
35
42
50
61
75
89
105
121
136
148
152
152
155
184
270
452
740
1128
1576
2025
2392
2632
2731
2740
2754
2877
3158
3575
4045
4468
4783
4979
5074
5107
5109
5096
5080
5065
5055
5054
5063
5080
5093
5075
4997
4820
4535
4148
3701
3253
2886
2645
2545
2534
2518
2394
2112
1694
1222
797
478
277
174
128
114
112
112
109
102
89
73
56
40
28
19
14
11
9
8
7
7
8
10
12
16
18
20
20
20
19
19
17
17
16
16
16
16
16
16
16
16
16
16
16
16
16
16
16
17
17
17
17
16
15
14
13
13
14
14
14
14
14
16
17
19
20
22
24
25
27
28
30
32
33
35
36
36
36
36
37
38
40
41
42
41
41
42
45
50
56
62
69
78
90
105
122
140
156
165
166
165
178
234
369
614
967
1392
1825
2192
2438
2548
2561
2567
2658
2892
3264
3710
4131
4460
4668
4769
4804
4805
4793
4777
4762
4751
4747
4753
4770
4787
4787
4738
4607
4364
4012
3587
3154
2786
2540
2428
2412
2404
2311
2076
1701
1253
828
495
282
173
130
118
117
117
113
105
91
74
55
37
23
13
8
5
3
3
3
4
4
4
4
5
5
5
5
5
6
8
10
12
13
13
13
14
15
17
18
19
19
19
19
18
18
18
18
19
20
21
22
22
22
21
21
21
21
20
18
16
14
12
12
12
12
12
11
9
9
9
9
10
12
14
15
15
15
14
13
12
11
12
13
14
16
19
22
26
31
37
43
52
64
80
97
116
131
142
144
144
157
206
320
522
815
1182
1578
1938
2208
2353
2391
2391
2440
2611
2910
3289
3674
3997
4227
4363
4430
4453
4451
4435
4418
4403
4396
4397
4407
4422
4422
4383
4275
4079
3789
3423
3028
2668
2398
2253
2214
2214
2164
1991
1690
1308
920
593
359
219
146
115
107
107
108
106
98
86
72
58
45
35
27
22
20
19
20
22
23
24
24
24
24
24
24
25
25
25
25
25
24
23
22
20
19
18
18
19
20
20
19
18
17
17
17
17
16
16
15
14
14
14
14
14
15
15
15
15
14
14
15
17
18
19
19
19
19
19
19
19
19
19
19
18
17
15
14
12
13
14
16
17
18
18
19
20
23
29
39
50
64
79
95
112
127
140
147
147
149
169
240
393
657
1031
1487
1959
2363
2633
2748
2761
2772
2883
3146
3534
3973
4375
4678
4870
4964
4996
4994
4980
4963
4946
4934
4928
4932
4944
4957
4949
4888
4741
4480
4108
3652
3181
2777
2508
2391
2377
2365
2253
1989
1600
1160
757
450
253
149
107
95
95
98
98
94
86
76
64
50
38
30
24
21
19
18
18
18
19
19
20
20
21
21
21
21
21
21
20
20
19
17
14
12
11
11
11
10
9
8
7
6
6
6
6
6
6
6
6
6
6
6
6
6
6
6
5
6
7
8
8
9
10
11
12
14
15
17
17
17
17
17
17
17
18
18
18
18
18
18
18
19
19
21
23
26
31
38
47
58
72
87
102
115
122
123
122
130
170
267
439
697
1017
1370
1703
1955
2095
2136
2135
2178
2336
2617
2976
3342
3641
3851
3974
4031
4048
4042
4028
4013
4004
4002
4010
4023
4038
4040
4009
3920
3752
3498
3181
2828
2496
2243
2103
2062
2062
2019
1861
1579
1219
851
551
337
209
145
119
113
113
112
105
93
77
61
46
34
24
17
11
7
5
4
4
6
7
9
10
10
10
10
9
9
9
9
9
9
8
8
8
8
8
8
8
8
8
8
8
8
8
8
9
9
8
7
5
4
3
3
4
5
5
6
6
6
6
7
7
8
9
9
10
10
11
11
11
11
11
11
11
11
11
11
11
11
11
11
10
10
9
9
10
13
17
25
35
49
64
83
103
123
141
152
156
156
163
206
318
531
858
1284
1764
2212
2552
2739
2795
2795
2843
3020
3347
3764
4196
4561
4820
4980
5060
5084
5080
5062
5041
5024
5015
5016
5026
5042
5048
5015
4912
4705
4382
3959
3481
3033
2694
2507
2451
2450
2402
2225
1898
1480
1047
680
416
249
159
121
109
108
107
104
96
82
68
51
38
28
20
14
10
8
6
6
6
6
6
6
7
8
8
8
9
8
8
8
7
7
7
6
6
6
6
6
6
7
7
7
8
8
8
8
7
7
7
8
9
10
10
10
10
9
9
9
9
10
10
11
12
13
14
15
16
17
17
18
17
16
15
15
15
14
14
14
14
14
14
15
15
16
17
18
21
25
34
45
61
79
99
119
137
149
155
154
158
192
293
496
816
1242
1714
2147
2474
2656
2709
2708
2758
2939
3264
3688
4136
4523
4809
4986
5075
5101
5094
5075
5058
5049
5049
5060
5078
5100
5113
5091
4998
4800
4483
4059
3587
3154
2827
2645
2591
2591
2541
2358
2032
1606
1158
769
481
299
202
164
156
156
152
140
121
97
73
50
33
21
13
8
6
5
6
7
9
11
12
13
13
13
13
13
14
14
14
14
14
13
13
13
14
14
15
16
16
17
17
17
17
17
17
17
16
15
13
11
10
10
9
9
9
9
8
8
7
7
7
7
8
8
8
7
7
7
7
7
7
6
6
6
6
6
6
7
7
7
8
9
11
14
20
28
39
51
64
78
91
104
114
122
125
125
129
161
247
414
684
1037
1433
1808
2090
2239
2277
2277
2332
2514
2821
3195
3560
3858
4060
4171
4219
4228
4220
4206
4195
4188
4188
4194
4207
4223
4233
4212
4132
3969
3703
3351
2955
2581
2299
2149
2111
2110
2054
1872
1565
1190
823
523
315
196
137
116
111
111
109
103
92
77
61
45
31
20
12
8
4
3
3
3
4
5
7
7
8
8
8
8
7
7
6
6
6
6
6
6
7
7
7
7
7
7
7
7
7
7
7
7
7
7
8
8
8
8
7
7
7
7
8
8
8
8
9
10
11
12
13
13
14
14
14
14
14
14
14
14
14
14
13
12
11
9
8
8
8
8
8
9
9
10
12
16
24
35
50
68
88
110
129
143
151
151
155
190
290
493
820
1245
1717
2158
2491
2678
2734
2734
2780
2947
3254
3650
4053
4399
4649
4803
4881
4907
4905
4888
4867
4846
4834
4831
4840
4855
4867
4847
4755
4559
4236
3813
3343
2903
2570
2383
2327
2326
2281
2113
1806
1410
1007
660
408
249
163
124
111
109
109
107
101
89
72
56
41
28
18
11
8
6
5
5
5
5
5
5
5
6
6
6
7
7
7
7
7
7
7
7
7
7
7
8
8
8
8
8
9
10
10
10
11
11
11
11
11
11
11
10
9
9
8
8
8
8
8
8
9
10
11
11
11
11
11
10
10
10
10
10
9
8
7
7
7
7
8
9
9
10
10
11
13
15
20
27
37
50
65
83
102
117
127
129
130
145
198
313
505
775
1101
1448
1755
1973
2085
2109
2110
2177
2369
2682
3049
3388
3651
3821
3913
3949
3954
3943
3927
3910
3896
3890
3892
3903
3917
3916
3873
3765
3579
3312
2987
2641
2333
2115
2003
1979
1978
1911
1720
1407
1040
700
436
263
166
123
108
106
106
104
98
89
77
63
49
36
25
16
11
7
6
7
8
9
10
11
10
9
8
7
7
7
7
7
7
7
8
8
8
8
8
8
8
8
8
8
7
8
9
10
11
12
11
10
9
9
8
9
9
9
9
9
9
9
9
9
9
10
11
12
12
13
13
14
14
14
14
14
13
11
10
9
8
9
10
11
13
15
17
20
23
27
33
41
52
65
80
97
111
120
122
121
134
184
300
503
785
1125
1479
1792
2022
2141
2171
2171
2226
2397
2690
3055
3406
3692
3881
3989
4037
4049
4044
4031
4015
4003
4001
4009
4027
4046
4049
4010
3902
3703
3422
3083
2729
2416
2186
2066
2036
2035
1979
1807
1512
1145
792
504
311
199
146
125
120
119
119
113
101
83
63
44
28
16
9
5
3
3
3
3
3
3
3
3
3
3
3
3
3
3
3
2
2
2
2
2
3
3
3
3
3
3
4
5
6
6
6
6
7
7
7
7
8
8
8
8
7
7
7
7
7
7
7
7
7
8
9
9
9
9
9
9
8
7
6
6
6
5
5
5
5
4
4
4
4
4
4
5
7
11
22
41
67
99
131
156
176
190
200
204
203
207
231
304
463
727
1101
1550
2014
2410
2680
2800
2817
2827
2935
3205
3616
4095
4542
4891
5115
5228
5264
5253
5224
5198
5180
5171
5173
5182
5197
5209
5200
5139
4990
4734
4364
3918
3455
3060
2790
2670
2652
2643
2534
2264
1854
1374
926
573
339
207
146
125
122
122
119
113
102
89
75
59
44
31
21
14
9
6
5
6
7
8
8
8
8
8
8
8
7
7
8
8
9
10
10
10
10
9
9
9
9
9
9
10
11
13
16
18
20
20
18
18
17
17
17
17
17
17
17
17
16
14
13
13
13
14
14
14
13
13
13
13
13
13
11
9
6
4
2
1
1
1
1
1
2
3
6
10
14
20
26
34
43
55
68
81
93
100
102
102
108
140
220
370
600
900
1247
1587
1863
2027
2083
2084
2116
2257
2532
2898
3277
3593
3807
3926
3978
3991
3986
3975
3962
3951
3945
3948
3959
3974
3980
3960
3889
3744
3517
3217
2870
2530
2254
2091
2035
2034
2002
1861
1585
1218
837
518
299
176
117
97
92
92
91
89
84
74
61
47
33
22
13
8
6
5
5
5
5
5
5
5
5
5
5
4
4
3
3
2
2
2
3
3
3
3
3
3
2
2
2
2
2
3
4
6
7
8
8
8
8
9
11
12
14
15
15
15
16
15
15
15
15
14
14
14
14
15
15
16
16
17
18
18
17
17
16
15
15
15
16
17
17
17
18
19
23
29
39
52
68
87
106
123
133
138
138
139
154
207
319
506
769
1088
1414
1683
1860
1937
1948
1953
2016
2169
2408
2689
2956
3178
3333
3423
3464
3472
3462
3444
3425
3410
3404
3407
3416
3425
3420
3376
3272
3089
2828
2510
2184
1914
1737
1660
1649
1644
1579
1425
1184
902
632
408
249
152
102
81
74
74
74
72
68
60
51
40
29
20
12
8
5
4
3
3
3
3
3
3
3
3
3
3
3
3
3
3
2
2
2
2
2
2
2
2
2
2
2
2
1
1
1
1
1
1
1
1
1
2
2
2
2
2
2
2
2
3
3
3
3
3
3
4
5
7
11
17
26
34
42
47
49
49
49
50
52
55
58
62
66
69
72
76
80
85
90
98
107
118
131
146
159
168
171
169
170
194
265
406
618
889
1175
1433
1615
1711
1734
1730
1758
1866
2060
2315
2581
2813
2981
3081
3126
3136
3129
3119
3108
3100
3096
3097
3104
3114
3116
3090
3014
2866
2649
2373
2085
1827
1645
1547
1523
1523
1491
1379
1181
923
653
418
246
141
91
73
71
71
68
61
52
41
30
21
13
9
5
3
2
1
1
1
1
1
1
1
2
2
2
2
3
3
3
4
4
4
4
4
4
4
4
5
5
6
6
6
6
6
7
7
7
7
6
6
6
6
6
6
5
5
5
4
4
3
3
4
4
5
5
5
5
5
4
4
4
3
3
3
3
3
3
3
4
4
5
6
7
8
10
12
15
21
29
41
57
74
93
110
124
134
136
136
148
193
301
484
748
1062
1388
1677
1885
1993
2020
2020
2058
2185
2413
2713
3025
3299
3498
3617
3670
3682
3672
3654
3636
3623
3618
3621
3632
3645
3645
3609
3507
3328
3067
2754
2428
2140
1932
1824
1796
1796
1757
1629
1399
1099
785
509
306
182
121
97
91
91
90
85
76
64
50
37
25
16
9
6
4
2
2
2
2
2
2
2
2
3
3
3
3
3
4
3
3
3
3
3
3
3
3
3
3
3
3
2
3
3
4
5
6
7
8
9
9
9
9
9
9
9
9
9
10
11
11
12
12
13
13
14
15
16
16
16
17
17
16
16
15
15
14
13
13
12
12
13
13
14
15
17
19
23
28
34
44
57
71
86
97
104
106
105
111
141
217
363
581
863
1170
1452
1665
1788
1826
1826
1850
1950
2142
2405
2686
2936
3126
3250
3315
3340
3340
3328
3313
3301
3297
3300
3309
3321
3326
3304
3233
3091
2874
2593
2286
2004
1790
1666
1628
1628
1603
1502
1310
1046
764
511
319
191
120
88
78
76
76
73
66
55
43
31
21
12
7
4
3
2
2
2
3
3
3
3
4
4
4
4
4
4
4
4
4
4
4
3
3
3
3
3
4
4
4
3
3
3
3
3
2
2
2
2
1
1
1
1
1
1
1
1
1
1
1
1
1
1
1
1
1
1
1
1
1
1
1
1
2
2
2
2
2
2
2
2
3
4
5
5
7
8
11
15
21
28
39
52
67
83
98
108
115
116
117
131
181
297
495
770
1097
1430
1712
1905
1998
2017
2018
2065
2205
2440
2733
3026
3276
3454
3561
3612
3625
3619
3604
3589
3578
3575
3579
3588
3598
3592
3549
3438
3243
2970
2644
2311
2029
1837
1743
1724
1722
1674
1534
1298
1004
710
457
275
163
105
81
75
75
75
71
63
53
42
31
23
16
12
9
7
7
7
9
10
11
12
12
12
12
12
12
12
11
11
11
10
10
9
9
9
9
9
9
9
9
9
9
9
8
8
7
6
4
3
2
2
2
2
2
2
2
2
2
2
2
2
2
2
3
3
4
4
5
5
6
6
7
8
8
8
8
8
8
8
9
10
11
13
14
15
18
22
26
33
42
52
65
81
97
113
125
133
134
134
147
194
306
497
773
1113
1473
1787
2016
2132
2157
2157
2212
2379
2666
3025
3376
3660
3853
3955
3994
3998
3987
3971
3958
3950
3949
3954
3966
3977
3973
3933
3825
3636
3361
3021
2661
2347
2118
2002
1975
1974
1919
1751
1463
1103
750
462
264
156
108
93
92
91
88
80
68
55
42
30
21
14
9
6
5
5
5
5
5
5
5
5
5
5
4
4
3
3
3
3
3
3
3
3
3
3
3
3
3
2
2
2
2
2
2
2
2
2
2
2
2
2
2
1
2
2
2
2
2
1
1
1
2
2
2
2
2
2
2
2
2
1
1
1
1
1
1
1
1
1
2
2
3
3
4
6
7
9
13
17
25
36
50
66
82
97
106
110
110
113
136
200
333
546
834
1168
1501
1777
1955
2031
2042
2048
2118
2290
2553
2865
3164
3409
3573
3666
3704
3708
3695
3679
3666
3659
3661
3670
3683
3691
3677
3618
3489
3277
2990
2656
2323
2047
1870
1794
1783
1777
1706
1534
1270
956
655
409
241
143
98
83
81
81
78
71
59
46
33
22
13
8
5
4
3
4
4
4
4
5
5
6
7
7
7
7
7
7
7
7
7
7
7
7
7
7
7
7
7
7
7
7
7
7
6
6
6
5
5
4
4
3
3
2
2
2
2
2
2
2
2
3
3
4
4
4
5
5
5
5
5
5
5
5
5
5
5
5
5
5
5
5
5
5
6
6
8
11
17
25
37
53
72
94
118
140
157
166
168
169
182
238
370
600
926
1322
1740
2108
2372
2500
2528
2529
2594
2786
3118
3536
3960
4317
4575
4725
4793
4807
4794
4771
4753
4745
4750
4764
4784
4803
4804
4758
4632
4407
4083
3688
3271
2904
2640
2512
2484
2482
2418
2225
1892
1474
1049
689
425
266
186
156
151
151
145
130
108
84
61
42
27
18
11
7
5
3
2
2
2
2
3
3
3
2
2
2
2
1
1
1
1
1
1
1
1
1
1
2
2
2
2
2
2
3
3
3
3
3
3
3
4
4
4
4
4
4
4
6
7
9
11
13
14
14
14
14
14
14
14
14
14
14
14
13
13
13
13
13
13
13
13
13
13
13
13
14
16
19
24
30
40
53
67
80
91
98
100
100
104
126
190
319
532
826
1180
1541
1841
2029
2099
2103
2123
2243
2501
2868
3271
3630
3898
4067
4151
4176
4173
4158
4145
4139
4142
4152
4168
4186
4196
4183
4125
4000
3789
3495
3142
2781
2480
2293
2222
2218
2197
2077
1819
1452
1049
689
420
248
158
124
116
116
114
107
94
76
58
40
27
18
12
9
7
7
6
6
7
7
7
7
7
7
7
7
7
6
6
6
6
6
6
6
6
6
6
6
7
7
7
7
7
7
8
8
8
8
8
8
8
8
8
8
8
8
8
7
7
7
7
7
7
7
7
7
7
6
5
5
4
4
4
4
4
4
4
4
4
4
4
4
5
6
8
9
11
12
14
17
21
30
43
62
86
112
136
155
166
169
169
179
227
347
565
905
1338
1809
2243
2550
2704
2736
2738
2816
3039
3411
3866
4321
4701
4962
5116
5184
5197
5183
5158
5136
5124
5124
5138
5159
5182
5188
5154
5042
4828
4491
4059
3588
3155
2849
2694
2662
2660
2581
2358
1985
1530
1075
693
429
271
194
169
165
165
161
149
130
106
83
61
45
33
25
20
18
17
17
17
18
19
19
19
18
17
15
14
13
13
13
12
12
12
11
11
11
11
11
10
9
8
7
6
6
5
5
5
4
4
3
3
2
3
3
3
3
3
3
3
3
3
3
3
3
4
4
5
6
7
7
8
9
10
10
10
10
10
10
10
12
13
15
17
18
18
19
19
22
26
33
43
56
71
86
101
113
122
124
123
131
171
275
467
755
1115
1489
1810
2028
2124
2138
2141
2209
2390
2677
3017
3343
3606
3782
3879
3919
3927
3917
3903
3888
3879
3875
3880
3893
3909
3915
3885
3788
3600
3314
2954
2580
2260
2041
1944
1929
1924
1853
1671
1382
1042
716
452
274
173
125
108
104
104
103
98
88
74
58
42
27
17
9
5
3
3
2
2
3
3
3
3
3
3
3
3
3
3
3
3
3
3
3
2
2
2
2
1
1
1
1
2
2
2
2
1
1
1
1
1
1
1
1
1
1
1
1
1
1
1
1
1
1
1
1
1
1
1
1
1
1
1
1
1
1
1
1
1
1
1
1
1
2
2
3
4
6
10
15
24
36
52
70
89
106
122
132
134
135
148
196
308
500
782
1129
1497
1817
2041
2149
2171
2174
2238
2415
2703
3042
3368
3630
3809
3908
3950
3956
3942
3925
3908
3898
3894
3897
3910
3922
3918
3877
3770
3581
3300
2954
2587
2267
2043
1935
1912
1909
1845
1667
1379
1039
713
449
267
163
112
94
92
92
89
82
70
56
42
30
20
13
8
5
4
3
3
3
3
3
3
3
3
3
3
3
3
3
3
3
3
4
4
4
4
4
4
4
5
5
6
7
7
8
9
9
10
10
10
10
10
10
10
10
10
10
10
10
9
9
9
9
9
9
9
9
9
9
9
8
7
7
6
5
5
5
5
4
4
4
4
4
4
5
6
8
10
13
18
24
32
44
60
78
95
113
126
133
134
135
148
199
311
508
796
1156
1545
1899
2157
2293
2325
2325
2383
2565
2878
3265
3652
3969
4177
4291
4338
4345
4333
4316
4299
4286
4281
4285
4299
4313
4311
4270
4165
3971
3685
3326
2938
2585
2326
2190
2158
2157
2098
1916
1603
1214
826
506
293
174
118
99
95
95
94
90
81
69
55
40
28
19
13
10
7
6
6
6
6
7
7
7
7
7
6
6
6
5
5
4
4
4
3
3
3
3
3
3
3
3
3
2
2
2
2
2
2
2
2
2
2
2
2
2
2
2
2
2
2
2
2
3
3
3
4
4
4
5
5
5
5
6
6
6
6
5
5
4
4
4
5
5
6
7
8
9
12
16
22
29
40
54
72
90
111
130
144
153
153
155
179
255
418
688
1063
1511
1968
2356
2620
2740
2759
2765
2862
3114
3516
3994
4448
4804
5034
5154
5200
5201
5185
5166
5150
5142
5142
5151
5166
5179
5167
5098
4942
4676
4305
3858
3402
3013
2749
2629
2610
2603
2506
2254
1851
1371
915
555
320
192
136
120
118
118
113
102
88
70
54
39
28
20
13
9
6
5
4
4
4
5
5
5
5
4
4
4
4
3
3
3
3
3
2
3
3
3
3
3
3
3
2
2
2
2
2
3
3
3
4
4
5
5
5
5
5
5
5
5
5
5
5
5
6
6
7
8
8
9
9
9
9
8
8
8
7
7
7
6
6
5
5
5
5
6
6
6
7
9
13
20
29
42
59
78
98
118
133
144
147
147
158
206
326
545
878
1311
1783
2216
2536
2714
2764
2764
2814
3007
3360
3824
4319
4750
5073
5269
5364
5391
5383
5364
5347
5339
5346
5363
5388
5414
5424
5390
5280
5067
4736
4304
3833
3400
3080
2902
2851
2851
2801
2608
2255
1791
1295
862
535
333
229
188
180
180
177
164
141
113
85
60
40
25
16
10
8
7
7
7
8
9
9
10
10
10
10
10
10
10
9
9
9
8
7
7
7
7
8
8
7
7
6
6
6
6
6
6
5
5
4
4
3
3
3
3
3
3
3
2
2
3
3
3
3
3
3
3
4
5
5
6
6
6
6
6
5
5
5
6
6
7
7
9
10
11
12
14
16
20
26
36
50
68
87
106
123
136
141
140
143
169
248
416
698
1080
1529
1962
2308
2522
2595
2596
2624
2763
3050
3453
3892
4287
4585
4774
4872
4908
4906
4890
4871
4858
4852
4856
4872
4892
4906
4893
4822
4660
4381
4001
3553
3120
2774
2560
2487
2484
2456
2315
2027
1624
1183
787
486
293
189
143
130
129
128
123
111
93
72
51
34
21
12
6
3
2
1
1
1
2
2
3
4
5
5
5
5
5
5
5
6
8
11
14
18
21
23
24
24
24
24
24
24
24
24
24
24
24
24
24
24
24
24
23
23
23
23
25
26
28
28
28
27
24
21
19
17
17
18
19
19
19
19
19
19
21
22
24
25
25
26
26
27
30
35
43
54
69
85
103
121
135
145
148
147
154
191
295
497
823
1256
1744
2208
2562
2759
2814
2812
2866
3068
3427
3890
4361
4762
5048
5216
5291
5311
5302
5285
5267
5255
5253
5261
5278
5299
5309
5283
5189
4992
4670
4238
3751
3287
2933
2735
2679
2679
2623
2421
2060
1596
1124
721
433
261
178
146
139
139
137
130
116
97
76
56
39
26
16
10
6
5
4
4
4
4
5
5
5
5
5
6
6
5
5
5
5
4
4
4
5
5
5
5
5
5
5
5
5
4
4
4
4
4
4
4
4
4
4
4
3
3
3
3
3
3
3
4
4
5
5
4
4
4
4
4
4
4
4
4
4
4
4
4
4
4
5
6
7
9
11
14
17
22
28
37
49
65
85
105
126
143
155
159
159
169
214
334
563
924
1388
1909
2405
2779
2992
3056
3056
3106
3302
3668
4162
4672
5109
5431
5628
5723
5754
5750
5730
5710
5695
5691
5698
5715
5736
5745
5714
5605
5383
5027
4565
4045
3550
3176
2962
2898
2898
2847
2649
2282
1786
1274
833
507
305
201
158
146
146
145
138
125
106
85
64
45
31
20
13
9
7
6
5
5
6
6
6
6
6
6
6
6
6
5
5
4
4
4
3
3
4
4
4
4
4
4
4
4
4
4
4
4
4
4
4
4
4
4
3
3
3
3
3
3
3
3
4
4
4
5
5
5
5
5
4
5
5
5
5
5
5
5
5
5
5
6
7
8
10
12
14
18
23
30
42
59
81
107
135
162
185
198
201
201
216
277
426
696
1106
1627
2208
2745
3141
3344
3392
3392
3481
3756
4218
4779
5331
5784
6100
6280
6358
6372
6356
6330
6304
6285
6278
6286
6307
6329
6334
6287
6147
5883
5476
4957
4377
3840
3444
3241
3193
3192
3102
2826
2362
1799
1244
789
469
282
192
161
154
154
152
144
128
108
84
62
43
29
20
13
10
8
7
7
7
7
7
7
7
7
7
7
6
6
5
5
4
4
4
4
4
4
4
3
3
2
2
1
1
1
1
1
1
1
1
1
1
1
2
2
2
2
3
3
3
3
4
4
5
5
5
5
5
5
5
5
5
5
6
7
7
8
9
10
12
14
19
27
40
58
78
100
121
138
149
153
152
159
197
298
491
791
1188
1636
2054
2374
2556
2609
2609
2659
2840
3173
3605
4044
4424
4698
4866
4944
4965
4956
4935
4914
4901
4898
4906
4925
4947
4959
4935
4844
4657
4359
3964
3516
3098
2778
2595
2542
2542
2491
2309
1975
1543
1102
721
445
272
186
152
143
143
141
134
119
100
78
55
36
22
13
7
5
4
4
4
4
5
5
5
5
5
5
5
4
4
4
4
4
4
4
4
4
4
4
4
4
4
4
3
3
3
3
3
3
3
3
4
4
4
4
4
4
4
4
4
4
5
5
5
6
6
6
6
6
7
7
8
8
9
9
10
10
10
9
9
9
10
11
13
15
18
21
23
26
29
34
41
52
65
81
96
111
121
127
127
128
147
207
343
578
917
1328
1746
2093
2317
2413
2423
2433
2532
2764
3108
3495
3846
4113
4282
4371
4404
4407
4396
4380
4366
4357
4357
4365
4378
4388
4379
4323
4191
3958
3620
3210
2792
2445
2221
2124
2113
2101
2000
1765
1418
1030
676
406
233
140
100
87
85
85
83
77
66
52
39
28
18
12
8
6
5
4
4
4
4
4
4
4
4
5
5
5
5
5
5
5
5
4
4
4
3
3
3
4
3
3
3
3
3
3
3
3
3
3
3
4
4
4
3
3
3
3
2
2
2
2
3
3
3
3
3
3
3
3
3
3
3
3
4
4
4
4
4
4
3
3
3
3
4
4
5
6
7
10
14
20
30
44
64
86
110
134
155
170
175
175
181
222
334
552
892
1348
1868
2364
2760
2996
3076
3077
3118
3305
3679
4191
4727
5196
5539
5751
5857
5893
5890
5870
5846
5826
5815
5818
5835
5860
5876
5852
5752
5542
5207
4754
4235
3739
3344
3109
3028
3026
2986
2798
2424
1911
1374
903
556
338
223
172
156
154
154
150
139
121
99
75
52
35
23
15
10
7
6
5
5
5
5
5
5
5
5
5
5
5
5
5
5
5
5
5
5
6
6
6
6
6
6
6
6
6
7
7
8
9
9
10
10
10
10
11
11
11
11
11
10
10
10
12
14
16
18
19
19
20
20
21
21
21
21
21
21
20
19
19
19
19
20
21
21
23
24
25
27
30
34
39
45
54
65
78
91
102
108
110
110
115
144
227
390
648
995
1391
1773
2073
2250
2310
2311
2340
2479
2760
3140
3541
3893
4154
4314
4395
4423
4423
4411
4397
4386
4382
4387
4399
4415
4424
4406
4331
4173
3918
3574
3179
2798
2497
2320
2258
2257
2227
2086
1804
1423
1019
666
402
238
152
116
105
104
103
100
92
80
65
49
34
22
14
8
5
3
2
1
1
2
3
4
5
7
9
11
14
16
18
18
18
18
18
19
21
23
25
27
29
31
32
33
33
34
34
34
34
34
33
33
32
31
30
30
30
31
34
40
50
65
82
98
111
119
121
119
121
147
225
387
656
1022
1455
1888
2241
2454
2528
2530
2564
2723
3036
3462
3917
4319
4624
4814
4913
4947
4947
4933
4917
4908
4910
4920
4938
4959
4972
4958
4890
4735
4471
4107
3675
3243
2889
2676
2602
2600
2567
2409
2097
1672
1217
815
509
317
212
169
157
156
155
148
133
115
94
74
56
42
30
21
16
12
11
10
10
10
10
10
9
8
7
6
5
4
3
3
3
3
3
3
3
3
3
2
2
2
2
2
2
2
2
2
2
2
2
2
2
2
2
1
1
1
1
1
1
1
1
1
1
1
1
1
1
1
1
1
1
2
2
3
4
6
7
10
13
18
25
37
53
73
95
119
142
159
169
171
172
192
263
421
685
1059
1507
1971
2367
2643
2772
2794
2798
2884
3107
3459
3876
4269
4593
4812
4941
5000
5016
5007
4986
4962
4943
4935
4938
4953
4968
4962
4902
4752
4493
4122
3675
3212
2816
2541
2413
2390
2385
2299
2075
1721
1303
907
580
356
220
149
117
107
105
105
102
92
79
63
47
32
21
13
7
4
2
1
1
1
1
1
1
1
1
1
2
2
2
2
2
2
2
2
2
2
2
3
3
3
3
3
3
3
3
4
4
5
5
5
5
5
5
5
4
4
4
4
4
3
3
4
4
4
3
3
3
3
3
3
3
4
4
4
4
3
3
2
2
2
2
2
3
4
4
6
8
11
17
24
35
49
69
93
119
147
171
189
197
198
202
235
340
547
880
1329
1841
2345
2756
3014
3115
3122
3144
3289
3601
4064
4583
5052
5414
5641
5759
5800
5798
5777
5751
5727
5712
5711
5723
5745
5762
5745
5653
5452
5124
4678
4167
3663
3253
2995
2894
2886
2864
2719
2405
1941
1420
948
581
345
217
161
144
141
141
137
127
111
90
68
47
29
17
10
5
2
1
1
1
1
1
1
2
2
2
2
2
2
2
2
2
3
3
3
3
3
3
3
3
3
3
3
3
3
4
4
4
5
5
6
6
7
7
7
7
7
7
7
8
9
9
10
10
11
11
12
13
14
15
15
16
15
15
15
15
14
14
14
13
12
12
12
12
13
15
17
21
26
34
46
59
77
95
112
126
134
135
134
147
200
320
533
840
1215
1603
1950
2185
2297
2316
2321
2400
2608
2947
3349
3736
4041
4245
4355
4397
4400
4387
4370
4356
4351
4355
4369
4390
4408
4410
4367
4255
4046
3742
3369
2981
2634
2399
2287
2269
2266
2190
1987
1654
1257
874
571
364
248
198
183
183
183
179
168
150
129
107
89
75
64
57
53
50
48
48
48
48
48
47
45
41
36
30
23
18
13
12
12
12
11
10
9
8
6
5
4
4
3
2
1
1
1
1
1
1
1
1
1
1
1
1
1
2
2
2
2
2
3
3
3
3
3
3
3
3
2
2
2
2
2
2
2
2
2
2
3
5
7
12
21
32
48
68
88
109
126
139
146
146
149
175
255
418
682
1043
1453
1849
2170
2367
2444
2449
2467
2575
2810
3150
3531
3883
4162
4350
4454
4495
4498
4483
4462
4444
4435
4435
4446
4463
4476
4463
4393
4236
3976
3618
3208
2813
2493
2295
2219
2213
2195
2087
1852
1512
1131
777
496
304
192
139
121
117
118
115
107
94
76
59
43
30
21
15
12
10
9
9
9
9
9
9
9
9
9
9
9
9
9
8
7
7
6
6
5
5
5
5
5
5
4
4
3
2
2
2
2
2
2
2
2
1
1
1
1
1
1
1
1
1
1
1
1
1
1
1
1
1
1
1
1
1
1
1
1
1
1
1
1
1
1
1
1
2
2
4
5
7
11
15
23
34
48
66
85
104
122
134
140
140
144
174
261
433
709
1076
1494
1898
2218
2410
2478
2480
2504
2632
2895
3268
3678
4050
4335
4518
4615
4649
4649
4633
4615
4599
4593
4597
4610
4629
4643
4626
4548
4381
4108
3742
3325
2922
2602
2410
2342
2339
2315
2187
1923
1549
1138
764
477
289
185
140
125
123
123
119
108
92
73
54
37
24
16
10
7
6
5
5
5
5
5
5
5
5
5
4
4
4
3
3
3
3
3
3
3
3
2
2
2
2
1
1
1
1
1
1
1
1
1
1
1
2
1
1
1
1
1
1
1
1
1
2
2
2
2
3
3
3
4
4
4
4
4
4
4
4
3
3
3
3
3
4
5
6
7
8
10
12
15
21
29
41
57
76
95
111
121
125
125
129
151
215
343
551
834
1160
1494
1770
1942
2013
2018
2032
2128
2346
2665
3024
3356
3612
3776
3861
3891
3890
3874
3856
3841
3836
3841
3857
3876
3888
3879
3824
3701
3496
3216
2890
2557
2281
2108
2037
2032
2017
1920
1701
1381
1021
688
430
262
172
134
123
122
122
117
106
90
71
52
35
22
13
7
4
3
2
2
2
2
2
2
2
3
3
3
3
2
2
2
2
2
2
2
2
2
2
1
1
1
2
2
2
2
2
2
2
2
2
2
2
2
2
2
2
2
2
2
2
2
2
3
3
3
3
3
3
3
4
4
4
4
4
4
3
3
3
3
3
3
3
3
3
3
4
4
6
7
9
11
13
18
25
35
48
64
81
97
109
116
116
118
137
199
331
544
832
1159
1473
1725
1884
1948
1954
1963
2036
2203
2455
2747
3022
3249
3405
3491
3526
3531
3521
3505
3489
3480
3478
3485
3499
3509
3500
3445
3317
3106
2819
2493
2180
1927
1769
1704
1698
1688
1614
1446
1194
900
624
395
236
146
103
88
85
85
83
76
66
52
38
26
16
10
6
3
2
1
1
1
1
1
1
1
1
1
1
1
1
1
1
1
1
1
1
1
1
1
1
1
1
1
1
1
1
1
1
1
1
1
1
1
1
1
1
1
1
1
1
1
1
1
1
1
1
1
1
1
2
2
2
2
2
2
3
4
5
6
7
8
9
11
12
13
16
20
26
33
43
54
66
78
88
96
98
98
105
139
222
371
589
853
1135
1382
1559
1652
1675
1674
1702
1806
1992
2237
2500
2734
2909
3017
3073
3091
3090
3080
3068
3059
3055
3058
3069
3084
3090
3067
2991
2846
2630
2368
2086
1840
1662
1568
1544
1544
1514
1410
1222
976
712
477
299
187
126
100
91
91
91
88
81
71
57
42
29
18
11
7
3
3
2
2
2
2
3
3
3
3
3
3
3
3
2
2
2
2
2
2
2
2
2
2
2
2
2
2
2
2
2
2
2
2
2
2
2
2
2
1
1
1
1
1
1
1
1
1
1
1
1
2
2
2
1
1
1
1
1
1
1
1
1
1
1
1
2
2
2
3
3
3
3
4
5
6
10
14
21
29
39
49
58
66
70
70
71
82
120
207
348
540
759
972
1140
1240
1278
1281
1289
1339
1455
1628
1825
2012
2161
2264
2322
2347
2350
2343
2334
2326
2321
2321
2327
2335
2343
2339
2305
2221
2082
1890
1672
1459
1291
1190
1151
1149
1140
1089
974
801
603
416
267
162
100
70
61
59
59
58
53
45
36
26
18
12
7
4
3
2
2
2
2
2
2
2
2
2
2
1
1
1
1
1
1
2
2
2
3
3
3
3
3
3
3
3
3
4
4
4
4
4
4
4
4
4
4
4
4
4
4
4
3
3
3
3
3
2
2
2
2
2
2
2
2
2
1
1
1
1
1
1
1
1
2
3
4
5
6
7
9
10
12
15
19
24
30
38
45
52
56
57
57
60
78
123
210
342
505
678
837
957
1024
1046
1047
1054
1096
1189
1324
1486
1644
1770
1858
1909
1931
1936
1931
1923
1917
1914
1916
1920
1928
1931
1919
1878
1794
1664
1502
1330
1171
1051
984
961
961
952
909
815
679
515
357
229
138
85
59
49
48
48
47
43
38
31
24
17
11
7
4
2
1
1
1
1
1
2
2
2
2
2
2
2
2
2
2
2
2
2
2
2
2
2
2
2
3
4
5
5
5
5
5
4
4
4
4
3
4
4
4
3
3
4
4
4
4
4
5
5
5
5
5
6
6
6
5
4
4
3
3
3
4
4
5
6
7
7
9
11
14
20
28
38
50
63
76
86
93
96
96
100
123
181
293
465
684
925
1149
1321
1430
1473
1477
1482
1524
1628
1795
1997
2204
2384
2513
2587
2617
2621
2611
2598
2586
2578
2575
2575
2579
2579
2561
2506
2397
2227
2009
1769
1545
1372
1264
1221
1216
1211
1168
1063
895
693
485
302
170
90
51
38
36
36
35
31
27
23
19
15
11
7
4
2
1
1
1
1
1
1
2
2
2
2
2
2
2
2
2
2
2
2
2
2
3
3
3
3
3
3
3
3
3
3
3
2
2
2
2
1
1
1
1
1
1
1
1
1
1
1
1
1
1
1
1
2
2
3
4
4
5
5
5
5
5
5
5
5
6
6
7
8
8
8
9
9
10
12
14
18
22
29
37
47
57
68
77
82
83
83
93
134
227
386
605
857
1103
1306
1438
1496
1504
1506
1551
1671
1868
2114
2360
2566
2709
2789
2823
2828
2821
2812
2803
2798
2797
2800
2809
2819
2818
2784
2695
2539
2322
2070
1824
1621
1489
1430
1421
1418
1372
1252
1055
808
562
354
209
125
87
75
73
73
71
66
57
48
37
26
16
10
5
2
1
1
1
1
1
1
1
1
1
1
1
1
1
1
1
1
1
1
1
1
1
1
1
2
2
2
2
2
2
2
2
2
2
2
2
2
2
2
2
2
2
2
2
2
2
2
2
2
2
2
2
2
2
2
2
2
2
2
2
2
2
2
2
2
2
2
2
2
2
3
3
4
5
9
14
21
31
43
55
67
77
87
92
92
93
106
154
255
422
646
898
1134
1321
1429
1470
1473
1481
1534
1654
1836
2044
2246
2412
2525
2588
2612
2613
2603
2591
2581
2576
2576
2582
2592
2601
2595
2552
2453
2287
2063
1811
1575
1388
1280
1239
1236
1227
1174
1054
872
664
461
293
177
110
78
67
66
66
64
58
49
38
27
18
11
6
4
3
3
3
3
3
3
3
3
3
3
3
3
3
3
3
3
3
3
2
2
2
2
2
2
2
2
2
1
1
1
1
1
1
1
1
1
1
1
1
1
1
1
1
1
1
1
1
2
2
2
2
2
2
2
3
3
3
3
4
4
4
4
4
4
4
5
5
6
7
9
11
14
19
26
36
48
61
77
93
108
117
122
122
124
145
209
341
554
836
1149
1456
1703
1852
1911
1915
1927
2006
2183
2446
2745
3025
3246
3395
3474
3503
3503
3491
3475
3463
3457
3461
3471
3485
3494
3483
3426
3299
3089
2808
2495
2188
1942
1792
1734
1729
1718
1639
1462
1198
898
616
391
237
151
112
100
99
99
95
86
73
58
44
32
22
15
10
6
5
4
4
4
4
4
4
3
3
3
3
4
4
5
5
5
5
5
5
5
6
6
6
7
7
7
7
7
7
8
8
8
8
8
8
8
7
7
7
6
6
5
5
4
4
4
4
4
4
4
4
3
3
3
3
3
2
2
2
2
2
2
2
2
2
2
2
2
2
2
2
3
5
9
14
23
34
49
65
82
98
112
120
123
123
134
179
291
489
777
1131
1498
1818
2042
2154
2179
2180
2231
2385
2648
2981
3320
3613
3817
3936
3986
3995
3983
3967
3952
3943
3940
3944
3953
3964
3962
3922
3815
3620
3333
2980
2613
2293
2069
1956
1932
1931
1880
1726
1463
1129
790
496
288
165
106
86
82
82
80
73
62
50
38
28
20
14
9
7
6
6
6
6
7
7
7
7
7
7
7
7
6
6
6
6
6
6
7
7
7
7
7
7
7
7
7
7
8
8
8
9
9
9
9
9
8
8
8
8
8
8
8
7
7
6
6
7
7
7
7
8
8
9
9
9
9
9
8
8
7
6
6
6
7
7
7
7
8
8
9
11
14
21
30
44
59
78
101
121
140
153
158
158
163
196
297
494
801
1197
1638
2041
2348
2520
2573
2573
2609
2759
3053
3456
3888
4275
4566
4747
4834
4860
4853
4834
4814
4801
4798
4806
4823
4844
4856
4835
4742
4550
4245
3850
3410
3007
2700
2527
2473
2473
2437
2287
1993
1589
1157
768
474
286
189
151
141
141
139
131
114
94
71
51
33
20
11
7
4
3
2
2
3
3
3
3
3
3
3
3
3
3
3
3
3
3
3
3
3
3
3
3
3
3
3
3
3
3
3
3
3
3
3
3
3
3
3
2
2
2
2
2
2
2
2
2
2
1
1
1
1
1
1
1
3
6
12
20
32
48
69
91
116
137
151
158
158
162
186
260
409
661
1008
1426
1860
2234
2492
2608
2624
2634
2742
3012
3430
3917
4372
4729
4964
5088
5135
5136
5118
5096
5076
5069
5075
5092
5118
5137
5131
5069
4928
4680
4336
3919
3487
3113
2855
2739
2722
2713
2605
2335
1917
1429
973
613
372
240
181
163
161
161
156
143
122
98
71
49
31
19
11
6
4
2
2
1
1
1
1
1
1
1
1
1
1
2
2
2
2
2
2
2
2
3
3
3
4
4
4
4
4
4
4
4
4
4
4
4
4
4
4
4
4
4
4
3
3
3
3
4
4
4
5
5
5
6
6
6
6
6
6
6
6
6
6
7
7
8
9
10
10
11
11
12
15
19
25
35
46
61
75
88
98
103
104
104
115
163
275
472
755
1095
1448
1749
1951
2041
2052
2060
2146
2358
2684
3058
3412
3680
3855
3945
3975
3975
3963
3949
3939
3937
3941
3953
3968
3980
3978
3936
3828
3633
3352
3012
2658
2358
2155
2065
2053
2044
1957
1744
1418
1043
690
420
243
150
114
104
104
103
98
87
73
55
39
26
17
11
7
5
4
4
4
4
4
4
4
4
3
3
3
3
3
2
2
2
2
1
1
1
1
1
1
1
1
1
1
1
1
1
1
1
1
2
2
4
5
6
7
8
8
10
13
18
25
36
49
65
81
96
108
114
115
116
131
184
304
517
824
1199
1587
1927
2157
2257
2271
2277
2363
2575
2901
3282
3634
3909
4094
4193
4237
4243
4233
4217
4203
4195
4194
4201
4214
4227
4224
4179
4065
3855
3550
3176
2788
2448
2219
2118
2103
2096
2009
1796
1469
1088
734
458
271
167
116
99
96
96
94
87
77
63
49
35
24
15
10
7
5
4
4
3
3
4
4
4
4
4
4
4
5
5
5
5
4
4
4
4
4
4
4
4
5
5
4
4
4
4
4
4
4
4
4
4
4
4
4
4
4
4
3
3
3
3
3
3
3
3
3
3
3
3
3
3
3
3
3
3
3
3
3
3
3
3
3
3
3
3
4
4
6
9
14
23
35
51
70
92
114
135
151
160
161
163
185
259
417
687
1061
1517
1989
2393
2663
2779
2792
2806
2934
3228
3669
4164
4611
4948
5161
5269
5308
5308
5290
5268
5250
5240
5240
5250
5268
5282
5273
5209
5057
4791
4419
3964
3492
3089
2819
2703
2690
2675
2547
2252
1812
1316
867
527
309
193
143
127
125
124
120
110
94
74
56
40
27
17
11
7
5
4
3
3
3
3
4
4
4
4
4
5
5
4
4
4
4
3
3
3
3
3
3
3
3
3
3
3
4
4
4
4
4
4
5
5
5
5
5
5
4
4
4
4
4
5
5
5
6
6
6
6
7
7
7
7
7
7
7
7
6
6
6
6
7
9
10
11
13
15
16
18
21
25
30
37
47
60
74
89
102
111
114
113
119
149
228
382
623
943
1317
1692
1999
2196
2271
2276
2292
2403
2648
3007
3408
3774
4059
4243
4342
4382
4389
4378
4363
4352
4350
4356
4371
4388
4397
4379
4308
4160
3923
3606
3233
2859
2553
2355
2278
2272
2254
2142
1895
1535
1132
764
476
289
185
138
123
121
122
118
107
91
73
56
41
29
21
14
11
9
8
8
8
9
10
11
12
14
16
19
22
24
25
24
24
23
22
22
22
23
24
25
27
28
29
30
30
30
30
29
29
28
27
26
25
25
24
24
24
27
33
43
56
72
88
103
115
122
124
123
129
164
259
446
733
1106
1531
1934
2242
2414
2468
2468
2513
2686
3000
3403
3813
4152
4389
4524
4586
4602
4595
4580
4564
4552
4547
4551
4561
4576
4583
4557
4468
4285
3999
3626
3202
2799
2491
2319
2265
2265
2220
2047
1734
1331
920
581
340
199
129
101
94
93
93
90
83
72
59
44
31
20
13
9
6
5
4
4
4
5
5
5
5
6
6
6
5
5
5
5
5
5
5
5
5
5
5
5
5
5
5
5
5
5
5
4
4
4
3
3
3
2
2
2
2
1
1
1
1
1
1
1
1
1
1
1
1
1
1
2
2
2
2
2
2
2
2
3
4
6
7
9
12
16
22
29
40
55
74
96
119
141
159
168
170
172
198
281
463
763
1181
1678
2190
2623
2905
3021
3033
3051
3191
3503
3950
4444
4882
5205
5407
5512
5552
5553
5537
5514
5495
5482
5481
5490
5508
5523
5510
5437
5261
4963
4547
4052
3540
3107
2825
2709
2697
2678
2537
2223
1775
1279
838
512
304
193
143
127
124
124
121
112
95
76
57
39
26
17
11
8
7
7
7
7
7
8
8
9
9
10
10
9
9
9
8
7
7
7
7
7
7
7
7
7
7
7
7
7
7
6
6
6
5
5
5
5
5
4
4
4
4
4
4
4
4
4
5
5
5
5
5
5
5
6
6
6
6
6
6
6
6
6
6
6
5
5
5
5
6
6
7
9
11
13
15
19
24
32
45
64
88
114
140
163
179
186
186
188
209
279
433
697
1071
1535
2023
2456
2751
2887
2908
2916
3023
3298
3722
4216
4677
5034
5264
5383
5426
5425
5403
5377
5354
5342
5344
5359
5382
5403
5400
5342
5196
4936
4565
4102
3614
3181
2887
2750
2728
2719
2611
2336
1910
1414
951
590
355
227
171
154
151
151
148
138
120
98
74
52
36
23
16
12
9
8
8
7
8
8
8
8
8
8
7
7
7
7
6
6
6
6
6
6
6
5
5
5
5
4
4
3
3
3
3
3
4
4
5
5
5
5
5
5
5
5
5
5
5
5
6
6
6
6
6
6
6
6
6
6
6
6
6
6
6
6
5
5
4
3
3
4
5
5
6
8
10
13
17
22
32
46
66
90
114
135
147
149
149
164
217
336
544
845
1212
1608
1962
2220
2348
2376
2378
2442
2633
2953
3348
3728
4039
4250
4366
4416
4426
4415
4396
4373
4352
4340
4339
4350
4364
4362
4320
4207
4004
3707
3341
2946
2592
2334
2206
2178
2176
2112
1920
1600
1204
822
509
296
177
121
103
100
100
99
95
86
76
64
50
37
27
21
17
14
12
12
11
11
11
11
11
11
11
11
11
11
10
10
9
9
8
7
7
7
7
7
7
6
5
5
4
4
3
3
3
3
3
3
3
3
3
3
3
3
3
3
3
3
3
3
3
3
3
3
3
3
3
3
3
3
3
3
3
4
4
4
4
4
4
4
4
5
6
8
9
11
12
15
18
22
28
35
46
60
81
105
131
154
167
171
170
183
233
357
575
908
1334
1814
2262
2609
2801
2854
2852
2912
3124
3504
3991
4485
4899
5190
5362
5441
5460
5451
5430
5409
5393
5386
5394
5412
5435
5441
5405
5292
5079
4749
4325
3845
3397
3050
2857
2804
2804
2743
2529
2148
1660
1164
746
452
275
188
158
153
154
151
142
126
105
83
60
42
27
17
12
9
8
9
10
11
13
16
18
20
20
20
20
19
19
19
19
19
19
19
18
18
18
18
17
17
17
17
17
16
15
15
15
16
15
13
11
9
7
6
6
7
7
8
8
8
8
8
9
10
11
13
14
15
16
19
21
22
23
24
24
24
25
28
31
34
37
39
40
40
40
39
39
39
41
44
50
61
76
97
124
152
175
190
194
191
198
239
347
549
862
1288
1773
2242
2606
2816
2884
2882
2929
3121
3488
3967
4471
4904
5216
5406
5493
5518
5511
5488
5462
5439
5431
5436
5455
5479
5491
5464
5367
5170
4861
4437
3950
3478
3111
2898
2827
2827
2779
2587
2220
1740
1236
802
489
296
203
168
160
160
158
151
135
115
90
66
46
31
21
17
14
12
12
12
13
13
14
14
14
14
13
14
14
14
14
14
13
13
12
12
12
12
12
12
12
13
13
12
11
9
8
7
7
6
6
5
5
5
5
5
4
4
4
4
4
4
4
4
4
4
5
6
7
8
8
9
9
9
9
10
10
10
10
10
10
11
11
12
12
13
13
14
15
17
20
23
29
36
47
61
80
99
119
134
141
142
142
157
212
336
560
893
1319
1775
2185
2473
2608
2630
2636
2733
2979
3353
3785
4186
4497
4696
4807
4852
4859
4848
4829
4811
4800
4799
4806
4821
4832
4825
4773
4652
4430
4098
3674
3219
2809
2522
2385
2363
2356
2259
2013
1638
1205
802
488
286
170
116
99
96
96
94
84
70
53
37
26
18
14
12
11
10
9
9
9
9
9
9
9
9
9
9
9
9
9
9
9
9
9
8
8
8
7
7
7
7
7
7
6
6
5
5
6
7
8
9
9
9
9
9
9
9
9
9
9
8
9
9
9
9
9
9
10
10
11
11
11
11
11
11
11
10
9
7
5
4
4
4
5
5
5
6
7
8
10
13
17
25
35
50
69
91
113
134
149
157
159
160
178
245
408
703
1144
1698
2279
2775
3095
3223
3233
3257
3420
3773
4276
4821
5299
5657
5882
6002
6050
6056
6041
6018
6000
5993
5998
6015
6037
6057
6054
5998
5842
5552
5114
4561
3981
3485
3165
3037
3026
3002
2839
2485
1981
1435
956
596
368
241
184
164
162
162
157
144
123
97
74
54
40
29
23
18
16
14
13
13
13
13
13
13
13
14
14
14
14
13
12
12
10
9
8
8
8
8
8
8
8
7
6
6
6
6
6
7
7
8
9
10
11
12
13
14
14
13
14
15
17
19
20
22
23
23
24
24
24
25
25
26
25
25
25
25
24
23
23
22
21
21
20
19
19
20
22
25
29
32
35
38
44
53
68
88
112
136
151
155
155
165
218
351
597
965
1437
1966
2478
2882
3111
3178
3178
3248
3499
3953
4523
5100
5584
5933
6147
6257
6298
6301
6285
6267
6258
6261
6282
6315
6349
6365
6331
6210
5971
5608
5138
4609
4097
3693
3464
3397
3397
3326
3074
2618
2046
1465
977
623
405
289
241
227
227
224
209
181
145
106
72
46
27
15
7
4
2
2
2
2
2
2
2
2
3
5
6
8
9
9
9
9
10
10
10
11
11
11
11
12
12
12
13
13
13
13
12
12
13
13
13
13
13
13
12
11
9
7
6
6
7
7
7
7
8
8
8
8
9
9
10
10
11
11
11
11
11
11
11
12
12
12
13
13
14
16
19
23
30
38
51
68
90
116
141
162
176
181
181
183
207
276
425
676
1037
1478
1934
2330
2593
2705
2717
2732
2851
3133
3542
3996
4411
4721
4912
5008
5038
5033
5013
4987
4965
4954
4955
4969
4989
5005
4995
4935
4791
4543
4184
3744
3288
2892
2628
2515
2502
2488
2368
2086
1676
1220
802
488
291
187
144
132
130
130
126
116
101
82
63
44
30
21
15
12
10
10
9
9
9
10
10
10
9
9
9
9
10
9
9
9
8
8
7
7
7
7
7
6
5
5
4
4
4
4
4
5
5
5
5
5
5
5
5
5
5
4
4
4
4
5
5
6
7
8
8
8
9
9
9
9
8
8
8
8
7
7
7
6
6
6
6
6
6
7
7
8
9
11
15
22
32
45
61
82
107
137
165
185
196
197
201
239
351
581
941
1413
1951
2472
2882
3129
3212
3214
3259
3456
3830
4325
4845
5284
5600
5785
5871
5894
5884
5863
5839
5816
5798
5792
5796
5808
5817
5792
5691
5469
5113
4644
4108
3588
3177
2931
2848
2846
2800
2603
2229
1734
1215
776
458
267
171
135
128
127
126
119
109
95
81
68
56
43
33
26
21
19
17
16
16
16
17
17
18
18
17
16
15
13
12
10
9
8
8
8
8
8
8
7
7
6
6
6
6
6
6
6
7
7
7
7
7
7
6
6
6
5
5
6
6
6
6
6
6
6
6
7
7
7
7
8
8
9
9
10
10
10
9
9
9
10
11
12
14
14
16
17
20
24
33
45
61
82
106
130
154
173
185
188
187
202
260
408
683
1100
1645
2253
2808
3211
3413
3452
3457
3584
3936
4490
5133
5730
6183
6473
6619
6671
6674
6655
6632
6613
6602
6602
6614
6635
6654
6654
6605
6462
6190
5774
5230
4623
4069
3666
3463
3422
3416
3288
2935
2380
1736
1138
682
387
233
169
149
147
147
141
128
109
84
60
41
26
17
12
10
9
8
8
8
8
8
8
8
8
8
9
9
10
10
10
10
10
10
11
11
12
12
12
12
12
12
12
11
10
9
7
6
5
5
6
6
6
6
6
6
6
6
6
5
5
6
7
8
8
8
8
8
8
8
9
10
11
12
13
13
13
13
13
13
13
13
14
15
16
16
18
19
22
25
29
33
38
45
54
65
80
96
112
124
130
130
130
145
198
313
516
804
1164
1553
1913
2177
2308
2337
2338
2407
2619
2971
3393
3801
4123
4332
4442
4485
4491
4481
4467
4454
4446
4449
4460
4478
4494
4493
4451
4341
4142
3856
3496
3107
2746
2482
2350
2320
2318
2247
2034
1681
1255
845
518
305
189
138
122
120
120
117
108
94
76
57
39
25
14
8
4
3
2
2
2
3
3
3
4
4
4
5
5
5
5
5
5
5
5
5
5
5
5
5
5
5
5
4
4
4
4
4
4
3
3
3
3
3
2
2
2
1
1
1
1
1
1
1
1
1
1
1
1
2
2
3
3
4
4
5
5
5
5
5
5
5
5
6
6
6
7
8
9
9
10
11
13
18
25
37
55
77
103
128
152
168
174
173
179
217
325
533
867
1315
1828
2324
2712
2947
3027
3028
3066
3243
3596
4067
4570
5002
5320
5519
5616
5647
5643
5621
5596
5577
5569
5577
5597
5621
5634
5608
5509
5306
4976
4529
4017
3521
3132
2897
2817
2815
2776
2599
2245
1773
1269
837
517
315
210
167
154
153
152
145
129
105
78
54
35
22
13
8
5
4
3
3
3
3
3
3
3
3
3
3
3
3
3
3
3
3
3
3
3
3
3
3
3
4
4
4
4
5
5
5
5
5
5
5
5
5
5
4
4
4
4
3
3
2
2
2
2
2
2
2
3
3
3
3
2
2
2
2
2
2
2
2
2
3
4
5
6
7
8
8
9
10
11
14
19
27
39
55
74
95
114
131
142
145
146
159
215
343
572
912
1338
1794
2212
2512
2665
2698
2699
2778
3018
3421
3908
4387
4767
5029
5174
5232
5245
5233
5213
5197
5190
5193
5208
5231
5253
5256
5211
5089
4863
4526
4101
3645
3227
2927
2772
2738
2736
2656
2416
2012
1524
1045
663
400
250
183
159
155
155
151
139
118
92
66
44
27
17
10
6
4
3
3
3
3
3
3
4
4
4
4
4
4
3
3
3
3
3
3
3
3
3
3
3
3
3
3
3
4
4
3
3
4
4
5
6
6
6
6
6
6
5
5
5
6
6
6
6
6
6
6
6
6
6
6
6
6
6
6
6
6
6
5
4
4
3
3
3
4
5
6
7
9
12
16
24
36
52
74
100
126
150
166
174
174
178
209
303
490
791
1194
1658
2099
2446
2654
2727
2730
2757
2897
3184
3587
4019
4406
4691
4869
4959
4990
4987
4966
4940
4918
4904
4904
4915
4936
4951
4935
4854
4674
4377
3976
3512
3072
2725
2517
2443
2441
2413
2272
1984
1580
1147
759
471
289
192
149
136
134
134
130
120
104
85
64
45
30
18
10
6
4
4
4
4
4
4
4
4
4
4
4
4
4
4
4
4
4
3
3
3
3
4
4
4
4
3
3
3
3
3
3
3
3
3
3
3
3
3
3
3
2
2
2
2
1
1
1
1
1
2
2
2
2
2
2
2
2
2
2
2
2
2
3
3
2
2
3
3
3
3
4
6
9
13
19
30
45
65
91
119
149
175
196
206
208
209
232
312
489
796
1237
1774
2329
2817
3150
3300
3322
3333
3465
3791
4294
4882
5426
5855
6137
6284
6337
6337
6313
6286
6262
6250
6250
6263
6287
6308
6305
6238
6069
5767
5329
4792
4238
3750
3417
3268
3245
3234
3102
2775
2271
1682
1136
703
414
256
188
168
166
165
158
145
124
100
74
52
32
19
11
6
3
2
2
1
1
2
2
2
2
3
3
3
4
4
3
3
3
3
3
3
3
4
4
5
5
5
5
5
5
6
6
6
6
6
6
6
6
6
6
6
5
5
4
4
4
4
5
5
5
5
5
5
5
5
5
5
6
6
6
6
6
6
6
5
5
6
6
7
7
8
9
11
13
16
21
29
40
56
75
97
119
138
151
157
156
162
195
292
479
774
1170
1626
2082
2457
2692
2782
2787
2812
2965
3291
3754
4256
4703
5026
5224
5321
5352
5348
5330
5308
5291
5282
5285
5299
5319
5331
5312
5226
5045
4754
4360
3905
3449
3075
2840
2750
2744
2718
2564
2237
1773
1269
821
494
292
188
145
133
132
131
126
116
100
81
60
42
28
17
10
6
4
3
3
3
3
3
4
4
5
5
5
5
5
4
4
4
4
4
4
4
4
4
4
4
4
4
4
4
4
4
4
4
4
4
4
3
3
2
2
2
2
2
1
1
1
1
1
2
2
2
2
2
2
2
2
2
2
2
2
2
2
2
2
3
3
4
5
6
7
7
8
11
14
20
28
41
59
80
102
124
144
155
159
159
168
213
333
557
897
1330
1818
2267
2607
2794
2847
2846
2904
3111
3485
3956
4427
4821
5093
5246
5315
5329
5317
5297
5277
5263
5257
5263
5278
5297
5302
5267
5154
4934
4596
4164
3676
3228
2888
2700
2647
2647
2588
2380
2006
1534
1062
666
391
232
156
129
123
123
121
112
99
81
62
43
28
18
11
7
5
4
4
4
4
4
4
5
5
5
5
6
6
6
6
5
5
4
4
4
4
4
4
4
4
4
5
5
5
5
5
5
4
4
4
4
4
4
4
4
4
4
4
3
3
3
3
3
3
4
4
4
4
4
5
5
5
5
5
5
5
5
5
5
5
5
5
6
6
7
8
9
9
11
13
17
24
36
52
74
100
128
154
176
190
195
195
212
286
458
759
1207
1771
2378
2924
3320
3523
3565
3568
3679
3992
4503
5110
5698
6160
6470
6635
6703
